   2.7999900e+00   2.7246100e+00
   2.8457600e+00   2.7240000e+00
   2.7832000e+00   2.7233900e+00
   2.7862500e+00   2.7224700e+00
   2.7999900e+00   2.7218600e+00
   2.7771000e+00   2.7212500e+00
   2.8381300e+00   2.7203400e+00
   2.8244000e+00   2.7194200e+00
   2.7969400e+00   2.7182000e+00
   2.7877800e+00   2.7166700e+00
   2.7557400e+00   2.7151500e+00
   2.7710000e+00   2.7136200e+00
   2.7832000e+00   2.7121000e+00
   2.7786300e+00   2.7105700e+00
   2.7526900e+00   2.7093500e+00
   2.7862500e+00   2.7081300e+00
   2.7954100e+00   2.7072100e+00
   2.7633700e+00   2.7066000e+00
   2.7587900e+00   2.7066000e+00
   2.7435300e+00   2.7072100e+00
   2.7572600e+00   2.7084400e+00
   2.7740500e+00   2.7096600e+00
   2.7816800e+00   2.7114900e+00
   2.7740500e+00   2.7133200e+00
   2.7359000e+00   2.7151500e+00
   2.7603100e+00   2.7172900e+00
   2.7618400e+00   2.7188100e+00
   2.7603100e+00   2.7197300e+00
   2.7755700e+00   2.7206400e+00
   2.7877800e+00   2.7212500e+00
   2.7633700e+00   2.7215600e+00
   2.7816800e+00   2.7212500e+00
   2.7725200e+00   2.7209500e+00
   2.7786300e+00   2.7206400e+00
   2.7938800e+00   2.7206400e+00
   2.7664200e+00   2.7209500e+00
   2.6763900e+00   2.7215600e+00
   2.7404800e+00   2.7224700e+00
   2.7587900e+00   2.7236900e+00
   2.7694700e+00   2.7249100e+00
   2.8701800e+00   2.7261400e+00
   2.8045700e+00   2.7276600e+00
   2.7282700e+00   2.7288800e+00
   2.7648900e+00   2.7307100e+00
   2.7587900e+00   2.7328500e+00
   2.7816800e+00   2.7349900e+00
   2.7832000e+00   2.7371200e+00
   2.7908300e+00   2.7389500e+00
   2.8030400e+00   2.7404800e+00
   2.7526900e+00   2.7417000e+00
   2.7465800e+00   2.7429200e+00
   2.7511600e+00   2.7438400e+00
   2.7496300e+00   2.7447500e+00
   2.7252200e+00   2.7456700e+00
   2.7679400e+00   2.7465800e+00
   2.7694700e+00   2.7475000e+00
   2.7465800e+00   2.7487200e+00
   2.7755700e+00   2.7499400e+00
   2.7496300e+00   2.7511600e+00
   2.7832000e+00   2.7523800e+00
   2.7404800e+00   2.7533000e+00
   2.7328500e+00   2.7545200e+00
   2.7404800e+00   2.7554300e+00
   2.7496300e+00   2.7563500e+00
   2.7511600e+00   2.7569600e+00
   2.7710000e+00   2.7581800e+00
   2.7511600e+00   2.7590900e+00
   2.7648900e+00   2.7600100e+00
   2.7557400e+00   2.7609300e+00
   2.7236900e+00   2.7615400e+00
   2.7450600e+00   2.7624500e+00
   2.7328500e+00   2.7630600e+00
   2.7267500e+00   2.7636700e+00
   2.7938800e+00   2.7645900e+00
   2.7648900e+00   2.7652000e+00
   2.8457600e+00   2.7658100e+00
   2.7557400e+00   2.7664200e+00
   2.7664200e+00   2.7667200e+00
   2.7771000e+00   2.7670300e+00
   2.8579700e+00   2.7673300e+00
   2.8167700e+00   2.7676400e+00
   2.7954100e+00   2.7676400e+00
   2.8183000e+00   2.7679400e+00
   2.7938800e+00   2.7682500e+00
   2.7511600e+00   2.7682500e+00
   2.8106700e+00   2.7685500e+00
   2.7999900e+00   2.7685500e+00
   2.8366100e+00   2.7688600e+00
   2.8610200e+00   2.7688600e+00
   2.8518700e+00   2.7694700e+00
   2.8854400e+00   2.7697800e+00
   2.8945900e+00   2.7703900e+00
   2.8533900e+00   2.7706900e+00
   2.8808600e+00   2.7713000e+00
   2.8320300e+00   2.7716100e+00
   2.8793300e+00   2.7719100e+00
   2.8762800e+00   2.7722200e+00
   2.8823900e+00   2.7725200e+00
   2.8839100e+00   2.7728300e+00
   2.8945900e+00   2.7731300e+00
   2.8640700e+00   2.7734400e+00
   2.8335600e+00   2.7737400e+00
   2.8305100e+00   2.7740500e+00
   2.8152500e+00   2.7743500e+00
   2.7572600e+00   2.7746600e+00
   2.7664200e+00   2.7749600e+00
   2.7710000e+00   2.7749600e+00
   2.7633700e+00   2.7746600e+00
   2.7603100e+00   2.7746600e+00
   2.7511600e+00   2.7746600e+00
   2.6825000e+00   2.7743500e+00
   2.7160600e+00   2.7740500e+00
   2.7526900e+00   2.7737400e+00
   2.7236900e+00   2.7734400e+00
   2.7587900e+00   2.7728300e+00
   2.7557400e+00   2.7725200e+00
   2.7145400e+00   2.7722200e+00
   2.6657100e+00   2.7716100e+00
   2.7099600e+00   2.7710000e+00
   2.7099600e+00   2.7706900e+00
   2.6855500e+00   2.7703900e+00
   2.7023300e+00   2.7703900e+00
   2.7130100e+00   2.7703900e+00
   2.6886000e+00   2.7700800e+00
   2.6825000e+00   2.7703900e+00
   2.6992800e+00   2.7706900e+00
   2.6916500e+00   2.7710000e+00
   2.6733400e+00   2.7716100e+00
   2.6702900e+00   2.7722200e+00
   2.6763900e+00   2.7725200e+00
   2.6748700e+00   2.7731300e+00
   2.6748700e+00   2.7737400e+00
   2.7526900e+00   2.7740500e+00
   2.7435300e+00   2.7746600e+00
   2.6870700e+00   2.7752700e+00
   2.6992800e+00   2.7755700e+00
   2.7130100e+00   2.7758800e+00
   2.6855500e+00   2.7764900e+00
   2.6504500e+00   2.7767900e+00
   2.6245100e+00   2.7767900e+00
   2.6886000e+00   2.7771000e+00
   2.7404800e+00   2.7774000e+00
   2.7801500e+00   2.7774000e+00
   2.7984600e+00   2.7774000e+00
   2.9251100e+00   2.7774000e+00
   3.0487100e+00   2.7777100e+00
   3.2028200e+00   2.7783200e+00
   3.3767700e+00   2.7783200e+00
   3.5263100e+00   2.7783200e+00
   3.6804200e+00   2.7786300e+00
   3.8147000e+00   2.7786300e+00
   3.8177500e+00   2.7783200e+00
   3.8024900e+00   2.7783200e+00
   3.7277200e+00   2.7780200e+00
   3.5629300e+00   2.7780200e+00
   3.5583500e+00   2.7786300e+00
   3.3142100e+00   2.7795400e+00
   3.1707800e+00   2.7804600e+00
   3.0151400e+00   2.7813700e+00
   2.8915400e+00   2.7822900e+00
   2.7908300e+00   2.7829000e+00
   2.7145400e+00   2.7835100e+00
   2.6443500e+00   2.7841200e+00
   2.5283800e+00   2.7850300e+00
   2.5192300e+00   2.7856400e+00
   2.5573700e+00   2.7865600e+00
   2.5634800e+00   2.7871700e+00
   2.5604200e+00   2.7874800e+00
   2.6168800e+00   2.7877800e+00
   2.5833100e+00   2.7883900e+00
   2.5787400e+00   2.7887000e+00
   2.5985700e+00   2.7893100e+00
   2.6245100e+00   2.7896100e+00
   2.6123000e+00   2.7899200e+00
   2.6825000e+00   2.7908300e+00
   2.6519800e+00   2.7923600e+00
   2.6962300e+00   2.7948000e+00
   2.7023300e+00   2.7981600e+00
   2.6504500e+00   2.8021200e+00
   2.6565600e+00   2.8060900e+00
   2.6580800e+00   2.8097500e+00
   2.6474000e+00   2.8137200e+00
   2.7313200e+00   2.8173800e+00
   2.7465800e+00   2.8210400e+00
   2.7221700e+00   2.8247100e+00
   2.7053800e+00   2.8277600e+00
   2.7374300e+00   2.8314200e+00
   2.6901200e+00   2.8344700e+00
   2.7328500e+00   2.8375200e+00
   2.7145400e+00   2.8399700e+00
   2.7053800e+00   2.8424100e+00
   2.6977500e+00   2.8451500e+00
   2.7038600e+00   2.8479000e+00
   2.7282700e+00   2.8512600e+00
   2.7771000e+00   2.8543100e+00
   2.7450600e+00   2.8573600e+00
   2.7404800e+00   2.8604100e+00
   2.7328500e+00   2.8631600e+00
   2.7511600e+00   2.8659100e+00
   2.7526900e+00   2.8683500e+00
   2.7603100e+00   2.8704800e+00
   2.7496300e+00   2.8723100e+00
   2.7328500e+00   2.8738400e+00
   2.7099600e+00   2.8753700e+00
   2.7313200e+00   2.8765900e+00
   2.7252200e+00   2.8775000e+00
   2.7328500e+00   2.8781100e+00
   2.7435300e+00   2.8784200e+00
   2.7496300e+00   2.8784200e+00
   2.7267500e+00   2.8787200e+00
   2.7328500e+00   2.8787200e+00
   2.7755700e+00   2.8787200e+00
   2.7694700e+00   2.8784200e+00
   2.8015100e+00   2.8781100e+00
   2.7496300e+00   2.8775000e+00
   2.7618400e+00   2.8768900e+00
   2.7542100e+00   2.8759800e+00
   2.8030400e+00   2.8753700e+00
   2.7069100e+00   2.8750600e+00
   2.8045700e+00   2.8753700e+00
   2.7587900e+00   2.8756700e+00
   2.7648900e+00   2.8762800e+00
   2.8091400e+00   2.8765900e+00
   2.7511600e+00   2.8768900e+00
   2.8167700e+00   2.8775000e+00
   2.8060900e+00   2.8778100e+00
   2.8198200e+00   2.8784200e+00
   2.8442400e+00   2.8790300e+00
   2.8137200e+00   2.8796400e+00
   2.8259300e+00   2.8802500e+00
   2.7771000e+00   2.8805500e+00
   2.7832000e+00   2.8808600e+00
   2.8015100e+00   2.8811600e+00
   2.8213500e+00   2.8814700e+00
   2.8030400e+00   2.8814700e+00
   2.8503400e+00   2.8811600e+00
   2.8579700e+00   2.8808600e+00
   2.8381300e+00   2.8802500e+00
   2.8381300e+00   2.8799400e+00
   2.8518700e+00   2.8796400e+00
   2.8259300e+00   2.8793300e+00
   2.8335600e+00   2.8790300e+00
   2.8701800e+00   2.8787200e+00
   2.8396600e+00   2.8784200e+00
   2.8472900e+00   2.8781100e+00
   2.8610200e+00   2.8778100e+00
   2.8533900e+00   2.8772000e+00
   2.8442400e+00   2.8768900e+00
   2.8350800e+00   2.8765900e+00
   2.8076200e+00   2.8759800e+00
   2.8183000e+00   2.8759800e+00
   2.8961200e+00   2.8756700e+00
   2.8732300e+00   2.8750600e+00
   2.8869600e+00   2.8744500e+00
   2.8610200e+00   2.8738400e+00
   2.8869600e+00   2.8735400e+00
   2.8533900e+00   2.8729200e+00
   2.8518700e+00   2.8726200e+00
   2.8579700e+00   2.8720100e+00
   2.8472900e+00   2.8714000e+00
   2.8396600e+00   2.8704800e+00
   2.9632600e+00   2.8698700e+00
   2.8717000e+00   2.8692600e+00
   2.8701800e+00   2.8683500e+00
   2.8167700e+00   2.8671300e+00
   2.8335600e+00   2.8662100e+00
   2.8625500e+00   2.8653000e+00
   2.8991700e+00   2.8643800e+00
   2.8656000e+00   2.8637700e+00
   2.8549200e+00   2.8631600e+00
   2.8411900e+00   2.8625500e+00
   2.9083300e+00   2.8622400e+00
   2.8884900e+00   2.8622400e+00
   2.9159500e+00   2.8622400e+00
   2.9037500e+00   2.8622400e+00
   2.9083300e+00   2.8625500e+00
   2.8976400e+00   2.8628500e+00
   2.8823900e+00   2.8634600e+00
   2.9144300e+00   2.8646900e+00
   2.9052700e+00   2.8665200e+00
   2.8930700e+00   2.8683500e+00
   2.8610200e+00   2.8701800e+00
   2.8930700e+00   2.8717000e+00
   2.8671300e+00   2.8732300e+00
   2.8488200e+00   2.8744500e+00
   2.8854400e+00   2.8759800e+00
   2.8686500e+00   2.8772000e+00
   2.8366100e+00   2.8784200e+00
   2.8579700e+00   2.8799400e+00
   2.8396600e+00   2.8811600e+00
   2.8381300e+00   2.8820800e+00
   2.8488200e+00   2.8830000e+00
   2.8701800e+00   2.8839100e+00
   2.8671300e+00   2.8845200e+00
   2.8442400e+00   2.8851300e+00
   2.8396600e+00   2.8860500e+00
   2.8411900e+00   2.8863500e+00
   2.8259300e+00   2.8866600e+00
   2.8579700e+00   2.8869600e+00
   2.8228800e+00   2.8869600e+00
   2.8060900e+00   2.8872700e+00
   2.8244000e+00   2.8875700e+00
   2.8396600e+00   2.8875700e+00
   2.8915400e+00   2.8872700e+00
   2.8533900e+00   2.8869600e+00
   2.8366100e+00   2.8866600e+00
   2.8976400e+00   2.8863500e+00
   2.8640700e+00   2.8863500e+00
   2.8244000e+00   2.8860500e+00
   2.8091400e+00   2.8860500e+00
   2.8350800e+00   2.8854400e+00
   2.8640700e+00   2.8851300e+00
   2.8625500e+00   2.8848300e+00
   2.8488200e+00   2.8845200e+00
   2.8533900e+00   2.8842200e+00
   2.8717000e+00   2.8839100e+00
   2.8762800e+00   2.8836100e+00
   2.8656000e+00   2.8836100e+00
   2.8213500e+00   2.8836100e+00
   2.8259300e+00   2.8833000e+00
   2.8625500e+00   2.8830000e+00
   2.8472900e+00   2.8826900e+00
   2.8549200e+00   2.8820800e+00
   2.8305100e+00   2.8814700e+00
   2.8121900e+00   2.8808600e+00
   2.8137200e+00   2.8805500e+00
   2.8152500e+00   2.8802500e+00
   2.9007000e+00   2.8793300e+00
   2.8823900e+00   2.8787200e+00
   2.8656000e+00   2.8775000e+00
   2.8823900e+00   2.8768900e+00
   2.8762800e+00   2.8759800e+00
   2.8564500e+00   2.8750600e+00
   2.7908300e+00   2.8738400e+00
   2.8091400e+00   2.8726200e+00
   2.8305100e+00   2.8717000e+00
   2.8350800e+00   2.8704800e+00
   2.7999900e+00   2.8692600e+00
   2.8244000e+00   2.8680400e+00
   2.8778100e+00   2.8668200e+00
   2.8350800e+00   2.8656000e+00
   2.8778100e+00   2.8643800e+00
   2.8472900e+00   2.8628500e+00
   2.8533900e+00   2.8613300e+00
   2.8686500e+00   2.8601100e+00
   2.8732300e+00   2.8588900e+00
   2.8808600e+00   2.8576700e+00
   2.8488200e+00   2.8567500e+00
   2.8518700e+00   2.8555300e+00
   2.8671300e+00   2.8543100e+00
   2.8472900e+00   2.8533900e+00
   2.9113800e+00   2.8524800e+00
   2.8656000e+00   2.8515600e+00
   2.8610200e+00   2.8509500e+00
   2.8533900e+00   2.8497300e+00
   2.8564500e+00   2.8488200e+00
   2.9342700e+00   2.8479000e+00
   2.9144300e+00   2.8469800e+00
   2.8976400e+00   2.8460700e+00
   2.8945900e+00   2.8448500e+00
   2.9525800e+00   2.8439300e+00
   2.9235800e+00   2.8430200e+00
   2.9464700e+00   2.8421000e+00
   2.9480000e+00   2.8411900e+00
   2.9388400e+00   2.8399700e+00
   2.9251100e+00   2.8387500e+00
   2.9632600e+00   2.8378300e+00
   2.9663100e+00   2.8369100e+00
   2.9541000e+00   2.8356900e+00
   2.9174800e+00   2.8347800e+00
   2.9815700e+00   2.8338600e+00
   2.9403700e+00   2.8326400e+00
   2.9388400e+00   2.8317300e+00
   2.9495200e+00   2.8302000e+00
   2.9205300e+00   2.8289800e+00
   2.9525800e+00   2.8277600e+00
   2.8488200e+00   2.8265400e+00
   2.9480000e+00   2.8250100e+00
   2.9159500e+00   2.8241000e+00
   2.8396600e+00   2.8225700e+00
   2.8442400e+00   2.8213500e+00
   2.8640700e+00   2.8201300e+00
   2.8472900e+00   2.8189100e+00
   2.8549200e+00   2.8176900e+00
   2.8228800e+00   2.8164700e+00
   2.8152500e+00   2.8152500e+00
   2.7969400e+00   2.8140300e+00
   2.7999900e+00   2.8128100e+00
   2.8213500e+00   2.8118900e+00
   2.8167700e+00   2.8106700e+00
   2.7984600e+00   2.8097500e+00
   2.7832000e+00   2.8085300e+00
   2.7740500e+00   2.8073100e+00
   2.8228800e+00   2.8060900e+00
   2.7618400e+00   2.8048700e+00
   2.7938800e+00   2.8039600e+00
   2.8396600e+00   2.8024300e+00
   2.8533900e+00   2.8012100e+00
   2.8121900e+00   2.8002900e+00
   2.7664200e+00   2.7990700e+00
   2.7771000e+00   2.7978500e+00
   2.7725200e+00   2.7969400e+00
   2.7816800e+00   2.7957200e+00
   2.7618400e+00   2.7948000e+00
   2.7511600e+00   2.7935800e+00
   2.8121900e+00   2.7926600e+00
   2.8198200e+00   2.7917500e+00
   2.7847300e+00   2.7908300e+00
   2.7740500e+00   2.7896100e+00
   2.7816800e+00   2.7883900e+00
   2.7267500e+00   2.7871700e+00
   2.7145400e+00   2.7862500e+00
   2.6947000e+00   2.7847300e+00
   2.7465800e+00   2.7835100e+00
   2.7511600e+00   2.7822900e+00
   2.8823900e+00   2.7813700e+00
   2.8869600e+00   2.7801500e+00
   2.9617300e+00   2.7786300e+00
   3.0197100e+00   2.7771000e+00
   3.1234700e+00   2.7758800e+00
   3.1967200e+00   2.7743500e+00
   3.3752400e+00   2.7728300e+00
   3.5110500e+00   2.7713000e+00
   3.6377000e+00   2.7697800e+00
   3.7918100e+00   2.7682500e+00
   3.7719700e+00   2.7664200e+00
   3.7612900e+00   2.7648900e+00
   3.6956800e+00   2.7633700e+00
   3.5751300e+00   2.7618400e+00
   3.4561200e+00   2.7603100e+00
   3.2669100e+00   2.7584800e+00
   3.1753500e+00   2.7569600e+00
   3.0624400e+00   2.7551300e+00
   2.9586800e+00   2.7533000e+00
   2.8671300e+00   2.7514600e+00
   2.7725200e+00   2.7499400e+00
   2.7801500e+00   2.7484100e+00
   2.6702900e+00   2.7471900e+00
   2.6229900e+00   2.7456700e+00
   2.5878900e+00   2.7438400e+00
   2.5802600e+00   2.7423100e+00
   2.6016200e+00   2.7407800e+00
   2.6519800e+00   2.7392600e+00
   2.6260400e+00   2.7374300e+00
   2.6489300e+00   2.7356000e+00
   2.6275600e+00   2.7340700e+00
   2.6489300e+00   2.7325400e+00
   2.6504500e+00   2.7310200e+00
   2.6550300e+00   2.7294900e+00
   2.6626600e+00   2.7279700e+00
   2.6916500e+00   2.7261400e+00
   2.7160600e+00   2.7243000e+00
   2.7496300e+00   2.7227800e+00
   2.7572600e+00   2.7209500e+00
   2.7710000e+00   2.7188100e+00
   2.7557400e+00   2.7169800e+00
   2.7633700e+00   2.7151500e+00
   2.7465800e+00   2.7133200e+00
   2.7542100e+00   2.7111800e+00
   2.7465800e+00   2.7090500e+00
   2.7053800e+00   2.7069100e+00
   2.8152500e+00   2.7047700e+00
   2.8183000e+00   2.7026400e+00
   2.7389500e+00   2.7008100e+00
   2.7786300e+00   2.6983600e+00
   2.8030400e+00   2.6962300e+00
   2.7832000e+00   2.6937900e+00
   2.7893100e+00   2.6916500e+00
   2.7877800e+00   2.6892100e+00
   2.7908300e+00   2.6867700e+00
   2.8228800e+00   2.6846300e+00
   2.7816800e+00   2.6825000e+00
   2.7969400e+00   2.6806600e+00
   2.8183000e+00   2.6785300e+00
   2.7679400e+00   2.6767000e+00
   2.7710000e+00   2.6745600e+00
   2.8198200e+00   2.6724200e+00
   2.8198200e+00   2.6702900e+00
   2.7954100e+00   2.6681500e+00
   2.7771000e+00   2.6660200e+00
   2.7954100e+00   2.6638800e+00
   2.8076200e+00   2.6614400e+00
   2.8183000e+00   2.6593000e+00
   2.7999900e+00   2.6577800e+00
   2.7633700e+00   2.6559400e+00
   2.7984600e+00   2.6541100e+00
   2.8045700e+00   2.6522800e+00
   2.7999900e+00   2.6504500e+00
   2.8366100e+00   2.6492300e+00
   2.8579700e+00   2.6483200e+00
   2.8274500e+00   2.6474000e+00
   2.8183000e+00   2.6467900e+00
   2.8213500e+00   2.6461800e+00
   2.8152500e+00   2.6458700e+00
   2.8167700e+00   2.6455700e+00
   2.8274500e+00   2.6452600e+00
   2.8411900e+00   2.6446500e+00
   2.8366100e+00   2.6443500e+00
   2.8076200e+00   2.6437400e+00
   2.8396600e+00   2.6431300e+00
   2.8442400e+00   2.6422100e+00
   2.8671300e+00   2.6416000e+00
   2.8564500e+00   2.6413000e+00
   2.8366100e+00   2.6422100e+00
   2.8076200e+00   2.6440400e+00
   2.8305100e+00   2.6458700e+00
   2.8793300e+00   2.6477100e+00
   2.8457600e+00   2.6492300e+00
   2.9220600e+00   2.6507600e+00
   2.9022200e+00   2.6522800e+00
   2.8717000e+00   2.6532000e+00
   2.8701800e+00   2.6544200e+00
   2.8884900e+00   2.6556400e+00
   2.8579700e+00   2.6565600e+00
   2.9007000e+00   2.6574700e+00
   2.8839100e+00   2.6583900e+00
   2.8930700e+00   2.6590000e+00
   2.8701800e+00   2.6596100e+00
   2.9357900e+00   2.6602200e+00
   2.9251100e+00   2.6605200e+00
   2.8976400e+00   2.6605200e+00
   2.9480000e+00   2.6605200e+00
   2.9556300e+00   2.6602200e+00
   2.8762800e+00   2.6599100e+00
   2.8503400e+00   2.6596100e+00
   2.8793300e+00   2.6593000e+00
   2.8976400e+00   2.6586900e+00
   2.9266400e+00   2.6580800e+00
   2.9251100e+00   2.6574700e+00
   2.9159500e+00   2.6565600e+00
   2.9052700e+00   2.6559400e+00
   2.9251100e+00   2.6550300e+00
   2.9281600e+00   2.6544200e+00
   2.9220600e+00   2.6535000e+00
   2.9144300e+00   2.6522800e+00
   2.9113800e+00   2.6513700e+00
   2.9342700e+00   2.6507600e+00
   2.9495200e+00   2.6498400e+00
   2.9281600e+00   2.6489300e+00
   2.9357900e+00   2.6477100e+00
   2.8915400e+00   2.6461800e+00
   2.8533900e+00   2.6449600e+00
   2.9281600e+00   2.6437400e+00
   2.9190100e+00   2.6422100e+00
   2.9159500e+00   2.6409900e+00
   2.9418900e+00   2.6397700e+00
   2.9388400e+00   2.6382400e+00
   2.9418900e+00   2.6370200e+00
   2.9144300e+00   2.6358000e+00
   2.9022200e+00   2.6345800e+00
   2.8854400e+00   2.6333600e+00
   2.8823900e+00   2.6324500e+00
   2.9357900e+00   2.6312300e+00
   2.9159500e+00   2.6303100e+00
   2.9113800e+00   2.6290900e+00
   2.9403700e+00   2.6281700e+00
   2.9403700e+00   2.6272600e+00
   2.9037500e+00   2.6263400e+00
   2.8976400e+00   2.6251200e+00
   2.9037500e+00   2.6242100e+00
   2.8701800e+00   2.6229900e+00
   2.8991700e+00   2.6217700e+00
   2.9174800e+00   2.6205400e+00
   2.8503400e+00   2.6196300e+00
   2.8320300e+00   2.6184100e+00
   2.8533900e+00   2.6174900e+00
   2.8472900e+00   2.6162700e+00
   2.8656000e+00   2.6153600e+00
   2.8823900e+00   2.6144400e+00
   2.8762800e+00   2.6135300e+00
   2.8488200e+00   2.6126100e+00
   2.8427100e+00   2.6113900e+00
   2.8411900e+00   2.6104700e+00
   2.8411900e+00   2.6092500e+00
   2.8411900e+00   2.6083400e+00
   2.7694700e+00   2.6077300e+00
   2.9037500e+00   2.6068100e+00
   2.8595000e+00   2.6059000e+00
   2.8595000e+00   2.6049800e+00
   2.8533900e+00   2.6040600e+00
   2.8884900e+00   2.6031500e+00
   2.8717000e+00   2.6019300e+00
   2.8808600e+00   2.6007100e+00
   2.8793300e+00   2.5994900e+00
   2.8320300e+00   2.5979600e+00
   2.8732300e+00   2.5967400e+00
   2.8396600e+00   2.5952100e+00
   2.8854400e+00   2.5939900e+00
   2.8656000e+00   2.5924700e+00
   2.9037500e+00   2.5912500e+00
   2.8610200e+00   2.5897200e+00
   2.8793300e+00   2.5878900e+00
   2.9541000e+00   2.5863600e+00
   2.8762800e+00   2.5848400e+00
   2.8228800e+00   2.5833100e+00
   2.8823900e+00   2.5817900e+00
   2.8045700e+00   2.5802600e+00
   2.7862500e+00   2.5787400e+00
   2.8244000e+00   2.5775100e+00
   2.8595000e+00   2.5759900e+00
   2.8533900e+00   2.5744600e+00
   2.8625500e+00   2.5729400e+00
   2.8366100e+00   2.5714100e+00
   2.8121900e+00   2.5698900e+00
   2.7847300e+00   2.5680500e+00
   2.8152500e+00   2.5662200e+00
   2.8350800e+00   2.5647000e+00
   2.8808600e+00   2.5634800e+00
   2.9007000e+00   2.5619500e+00
   2.8961200e+00   2.5604200e+00
   2.8533900e+00   2.5589000e+00
   2.7908300e+00   2.5576800e+00
   2.9129000e+00   2.5561500e+00
   2.8915400e+00   2.5549300e+00
   2.9022200e+00   2.5534100e+00
   2.9266400e+00   2.5518800e+00
   2.8488200e+00   2.5503500e+00
   2.8137200e+00   2.5488300e+00
   2.8396600e+00   2.5473000e+00
   2.8244000e+00   2.5457800e+00
   2.8457600e+00   2.5442500e+00
   2.8732300e+00   2.5427200e+00
   2.9052700e+00   2.5412000e+00
   2.8778100e+00   2.5396700e+00
   2.8808600e+00   2.5381500e+00
   2.8945900e+00   2.5366200e+00
   2.9052700e+00   2.5351000e+00
   2.8930700e+00   2.5335700e+00
   2.8839100e+00   2.5320400e+00
   2.8579700e+00   2.5305200e+00
   2.9007000e+00   2.5289900e+00
   2.9357900e+00   2.5274700e+00
   2.8945900e+00   2.5259400e+00
   2.8930700e+00   2.5241100e+00
   2.8640700e+00   2.5225800e+00
   2.9342700e+00   2.5207500e+00
   2.9632600e+00   2.5189200e+00
   3.0593900e+00   2.5174000e+00
   2.9998800e+00   2.5161700e+00
   2.9541000e+00   2.5146500e+00
   2.9403700e+00   2.5131200e+00
   2.9647800e+00   2.5116000e+00
   2.9739400e+00   2.5097700e+00
   2.9007000e+00   2.5082400e+00
   2.9296900e+00   2.5067100e+00
   2.9830900e+00   2.5048800e+00
   2.9327400e+00   2.5033600e+00
   2.9266400e+00   2.5018300e+00
   2.8961200e+00   2.5003100e+00
   2.9052700e+00   2.4987800e+00
   2.8884900e+00   2.4975600e+00
   2.8747600e+00   2.4960300e+00
   2.9510500e+00   2.4948100e+00
   2.8808600e+00   2.4935900e+00
   2.8991700e+00   2.4923700e+00
   2.8671300e+00   2.4908400e+00
   2.8549200e+00   2.4896200e+00
   2.8305100e+00   2.4884000e+00
   2.7893100e+00   2.4871800e+00
   2.8137200e+00   2.4859600e+00
   2.7984600e+00   2.4847400e+00
   2.8686500e+00   2.4832200e+00
   2.8930700e+00   2.4816900e+00
   2.8015100e+00   2.4804700e+00
   2.7374300e+00   2.4792500e+00
   2.7999900e+00   2.4774200e+00
   2.7954100e+00   2.4758900e+00
   2.7847300e+00   2.4743700e+00
   2.8503400e+00   2.4731400e+00
   2.7923600e+00   2.4719200e+00
   2.8137200e+00   2.4704000e+00
   2.7893100e+00   2.4688700e+00
   2.7969400e+00   2.4673500e+00
   2.7893100e+00   2.4658200e+00
   2.7786300e+00   2.4642900e+00
   2.8106700e+00   2.4627700e+00
   2.7740500e+00   2.4609400e+00
   2.7526900e+00   2.4594100e+00
   2.7816800e+00   2.4578900e+00
   2.7618400e+00   2.4563600e+00
   2.7526900e+00   2.4545300e+00
   2.7725200e+00   2.4530000e+00
   2.8183000e+00   2.4514800e+00
   2.7771000e+00   2.4502600e+00
   2.7420000e+00   2.4487300e+00
   2.7755700e+00   2.4472000e+00
   2.7710000e+00   2.4459800e+00
   2.7877800e+00   2.4441500e+00
   2.8427100e+00   2.4426300e+00
   2.8793300e+00   2.4411000e+00
   2.9220600e+00   2.4395800e+00
   2.9480000e+00   2.4383500e+00
   3.0487100e+00   2.4365200e+00
   3.0960100e+00   2.4350000e+00
   3.2363900e+00   2.4331700e+00
   3.3981300e+00   2.4316400e+00
   3.5095200e+00   2.4301100e+00
   3.7002600e+00   2.4282800e+00
   3.8116500e+00   2.4267600e+00
   3.7811300e+00   2.4252300e+00
   3.7429800e+00   2.4234000e+00
   3.6514300e+00   2.4218800e+00
   3.5537700e+00   2.4200400e+00
   3.4088100e+00   2.4185200e+00
   3.3020000e+00   2.4166900e+00
   3.1478900e+00   2.4151600e+00
   2.9373200e+00   2.4139400e+00
   2.8656000e+00   2.4124100e+00
   2.7984600e+00   2.4105800e+00
   2.7084400e+00   2.4090600e+00
   2.6306200e+00   2.4078400e+00
   2.6413000e+00   2.4063100e+00
   2.5909400e+00   2.4050900e+00
   2.5772100e+00   2.4035600e+00
   2.6107800e+00   2.4023400e+00
   2.6367200e+00   2.4011200e+00
   2.6336700e+00   2.3996000e+00
   2.6519800e+00   2.3986800e+00
   2.6687600e+00   2.3971600e+00
   2.6535000e+00   2.3959400e+00
   2.6596100e+00   2.3947100e+00
   2.6763900e+00   2.3938000e+00
   2.7114900e+00   2.3925800e+00
   2.6870700e+00   2.3913600e+00
   2.7938800e+00   2.3898300e+00
   2.7710000e+00   2.3883100e+00
   2.7298000e+00   2.3864700e+00
   2.7679400e+00   2.3849500e+00
   2.7740500e+00   2.3831200e+00
   2.7771000e+00   2.3809800e+00
   2.7877800e+00   2.3788500e+00
   2.7954100e+00   2.3767100e+00
   2.7923600e+00   2.3748800e+00
   2.7786300e+00   2.3730500e+00
   2.7771000e+00   2.3709100e+00
   2.8183000e+00   2.3687700e+00
   2.8167700e+00   2.3669400e+00
   2.7786300e+00   2.3651100e+00
   2.7496300e+00   2.3629800e+00
   2.7587900e+00   2.3611500e+00
   2.7755700e+00   2.3590100e+00
   2.7740500e+00   2.3571800e+00
   2.8442400e+00   2.3553500e+00
   2.8198200e+00   2.3535200e+00
   2.8457600e+00   2.3516800e+00
   2.8457600e+00   2.3498500e+00
   2.8503400e+00   2.3480200e+00
   2.7954100e+00   2.3465000e+00
   2.7999900e+00   2.3446700e+00
   2.7832000e+00   2.3428300e+00
   2.7832000e+00   2.3407000e+00
   2.8060900e+00   2.3391700e+00
   2.8137200e+00   2.3373400e+00
   2.8167700e+00   2.3358200e+00
   2.8259300e+00   2.3339800e+00
   2.8717000e+00   2.3321500e+00
   2.8091400e+00   2.3303200e+00
   2.8610200e+00   2.3284900e+00
   2.8396600e+00   2.3266600e+00
   2.8305100e+00   2.3245200e+00
   2.8442400e+00   2.3226900e+00
   2.8732300e+00   2.3208600e+00
   2.8564500e+00   2.3190300e+00
   2.8442400e+00   2.3168900e+00
   2.8350800e+00   2.3147600e+00
   2.8106700e+00   2.3126200e+00
   2.8152500e+00   2.3104900e+00
   2.8167700e+00   2.3083500e+00
   2.8503400e+00   2.3065200e+00
   2.8717000e+00   2.3046900e+00
   2.8732300e+00   2.3028600e+00
   2.8640700e+00   2.3010300e+00
   2.8854400e+00   2.2995000e+00
   2.8686500e+00   2.2979700e+00
   2.8793300e+00   2.2964500e+00
   2.8671300e+00   2.2946200e+00
   2.8640700e+00   2.2930900e+00
   2.8793300e+00   2.2915600e+00
   2.8869600e+00   2.2900400e+00
   2.8701800e+00   2.2882100e+00
   2.8930700e+00   2.2863800e+00
   2.9022200e+00   2.2845500e+00
   2.8854400e+00   2.2824100e+00
   2.9159500e+00   2.2805800e+00
   2.8747600e+00   2.2790500e+00
   2.9037500e+00   2.2769200e+00
   2.8945900e+00   2.2750900e+00
   2.9678300e+00   2.2732500e+00
   2.9678300e+00   2.2714200e+00
   2.9281600e+00   2.2692900e+00
   2.8747600e+00   2.2674600e+00
   2.8823900e+00   2.2656300e+00
   2.9312100e+00   2.2634900e+00
   2.9251100e+00   2.2613500e+00
   2.9159500e+00   2.2595200e+00
   2.9037500e+00   2.2573900e+00
   2.8991700e+00   2.2555500e+00
   2.9602100e+00   2.2534200e+00
   2.9373200e+00   2.2512800e+00
   2.9144300e+00   2.2494500e+00
   2.9296900e+00   2.2476200e+00
   2.9296900e+00   2.2454800e+00
   2.9892000e+00   2.2436500e+00
   2.9342700e+00   2.2418200e+00
   2.9327400e+00   2.2396900e+00
   2.9586800e+00   2.2378500e+00
   2.9434200e+00   2.2360200e+00
   2.9235800e+00   2.2341900e+00
   2.9678300e+00   2.2326700e+00
   2.9663100e+00   2.2308300e+00
   2.9571500e+00   2.2287000e+00
   2.9373200e+00   2.2271700e+00
   2.9586800e+00   2.2250400e+00
   2.9357900e+00   2.2232100e+00
   2.9525800e+00   2.2210700e+00
   2.9449500e+00   2.2189300e+00
   2.9480000e+00   2.2171000e+00
   2.9602100e+00   2.2152700e+00
   2.9586800e+00   2.2134400e+00
   2.9525800e+00   2.2116100e+00
   2.9342700e+00   2.2097800e+00
   2.9525800e+00   2.2079500e+00
   2.9724100e+00   2.2058100e+00
   2.9083300e+00   2.2039800e+00
   2.9403700e+00   2.2021500e+00
   2.9708900e+00   2.2003200e+00
   2.9418900e+00   2.1984900e+00
   2.9541000e+00   2.1966600e+00
   2.9342700e+00   2.1948200e+00
   2.9113800e+00   2.1929900e+00
   2.8747600e+00   2.1911600e+00
   2.9113800e+00   2.1896400e+00
   2.9007000e+00   2.1878100e+00
   2.8488200e+00   2.1859700e+00
   2.8823900e+00   2.1844500e+00
   2.8854400e+00   2.1826200e+00
   2.9296900e+00   2.1807900e+00
   2.9785200e+00   2.1789600e+00
   2.9403700e+00   2.1771200e+00
   2.8961200e+00   2.1756000e+00
   2.8457600e+00   2.1740700e+00
   2.8472900e+00   2.1722400e+00
   2.8762800e+00   2.1704100e+00
   2.8274500e+00   2.1688800e+00
   2.8579700e+00   2.1670500e+00
   2.8564500e+00   2.1652200e+00
   2.8595000e+00   2.1633900e+00
   2.8640700e+00   2.1618700e+00
   2.8701800e+00   2.1600300e+00
   2.8945900e+00   2.1585100e+00
   2.8274500e+00   2.1563700e+00
   2.8472900e+00   2.1545400e+00
   2.8640700e+00   2.1530200e+00
   2.8106700e+00   2.1511800e+00
   2.8472900e+00   2.1493500e+00
   2.8518700e+00   2.1478300e+00
   2.8320300e+00   2.1463000e+00
   2.8442400e+00   2.1450800e+00
   2.9113800e+00   2.1435500e+00
   2.8854400e+00   2.1417200e+00
   2.8595000e+00   2.1402000e+00
   2.8045700e+00   2.1386700e+00
   2.8579700e+00   2.1374500e+00
   2.8671300e+00   2.1356200e+00
   2.8442400e+00   2.1340900e+00
   2.9357900e+00   2.1322600e+00
   2.8549200e+00   2.1307400e+00
   2.8900100e+00   2.1292100e+00
   2.8610200e+00   2.1276900e+00
   2.8549200e+00   2.1261600e+00
   2.8625500e+00   2.1249400e+00
   2.8335600e+00   2.1231100e+00
   2.8793300e+00   2.1212800e+00
   2.8854400e+00   2.1194500e+00
   2.8213500e+00   2.1173100e+00
   2.9388400e+00   2.1151700e+00
   2.8366100e+00   2.1133400e+00
   2.8411900e+00   2.1109000e+00
   2.8411900e+00   2.1087600e+00
   2.8549200e+00   2.1066300e+00
   2.8869600e+00   2.1048000e+00
   2.8839100e+00   2.1029700e+00
   2.8793300e+00   2.1008300e+00
   2.8869600e+00   2.0986900e+00
   2.8701800e+00   2.0968600e+00
   2.8686500e+00   2.0947300e+00
   2.8488200e+00   2.0929000e+00
   2.8701800e+00   2.0910600e+00
   2.8717000e+00   2.0889300e+00
   2.8625500e+00   2.0871000e+00
   2.8717000e+00   2.0852700e+00
   2.9129000e+00   2.0831300e+00
   2.9068000e+00   2.0813000e+00
   2.8549200e+00   2.0791600e+00
   2.8152500e+00   2.0773300e+00
   2.8808600e+00   2.0752000e+00
   2.8823900e+00   2.0733600e+00
   2.8900100e+00   2.0715300e+00
   2.9220600e+00   2.0694000e+00
   2.9205300e+00   2.0672600e+00
   2.8793300e+00   2.0654300e+00
   3.0014000e+00   2.0636000e+00
   2.8823900e+00   2.0617700e+00
   2.8884900e+00   2.0596300e+00
   2.8930700e+00   2.0562700e+00
   2.9113800e+00   2.0523100e+00
   2.9159500e+00   2.0474200e+00
   2.9541000e+00   2.0422400e+00
   2.9388400e+00   2.0370500e+00
   2.9541000e+00   2.0321700e+00
   2.8945900e+00   2.0269800e+00
   2.9174800e+00   2.0220900e+00
   2.9556300e+00   2.0172100e+00
   2.9846200e+00   2.0120200e+00
   2.9525800e+00   2.0071400e+00
   3.0151400e+00   2.0022600e+00
   2.9708900e+00   1.9976800e+00
   2.9663100e+00   1.9934100e+00
   2.9510500e+00   1.9891400e+00
   2.9632600e+00   1.9851700e+00
   2.8884900e+00   1.9815100e+00
   2.9388400e+00   1.9778400e+00
   2.9296900e+00   1.9744900e+00
   2.9190100e+00   1.9711300e+00
   2.9235800e+00   1.9680800e+00
   2.9251100e+00   1.9653300e+00
   2.8808600e+00   1.9625900e+00
   2.9190100e+00   1.9601400e+00
   2.9022200e+00   1.9577000e+00
   2.8595000e+00   1.9555700e+00
   2.8244000e+00   1.9531300e+00
   2.8747600e+00   1.9509900e+00
   2.8488200e+00   1.9488500e+00
   2.8015100e+00   1.9470200e+00
   2.8274500e+00   1.9448900e+00
   2.8137200e+00   1.9427500e+00
   2.8106700e+00   1.9406100e+00
   2.8106700e+00   1.9387800e+00
   2.8167700e+00   1.9366500e+00
   2.8244000e+00   1.9345100e+00
   2.7832000e+00   1.9323700e+00
   2.7710000e+00   1.9305400e+00
   2.7877800e+00   1.9284100e+00
   2.7191200e+00   1.9268800e+00
   2.7908300e+00   1.9247400e+00
   2.7374300e+00   1.9232200e+00
   2.7999900e+00   1.9213900e+00
   2.8198200e+00   1.9198600e+00
   2.7908300e+00   1.9183300e+00
   2.8091400e+00   1.9165000e+00
   2.7679400e+00   1.9146700e+00
   2.7648900e+00   1.9128400e+00
   2.8015100e+00   1.9110100e+00
   2.8091400e+00   1.9088700e+00
   2.7816800e+00   1.9070400e+00
   2.8045700e+00   1.9052100e+00
   2.8091400e+00   1.9036900e+00
   2.7496300e+00   1.9018600e+00
   2.7664200e+00   1.9000200e+00
   2.7298000e+00   1.8985000e+00
   2.7206400e+00   1.8969700e+00
   2.7740500e+00   1.8954500e+00
   2.7908300e+00   1.8936200e+00
   2.8137200e+00   1.8920900e+00
   2.8976400e+00   1.8908700e+00
   2.9647800e+00   1.8890400e+00
   3.0075100e+00   1.8875100e+00
   3.1448400e+00   1.8859900e+00
   3.2684300e+00   1.8841600e+00
   3.4133900e+00   1.8826300e+00
   3.5598800e+00   1.8811000e+00
   3.6911000e+00   1.8792700e+00
   3.7796000e+00   1.8771400e+00
   3.7399300e+00   1.8753100e+00
   3.6499000e+00   1.8731700e+00
   3.6529500e+00   1.8710300e+00
   3.6041300e+00   1.8689000e+00
   3.5690300e+00   1.8664600e+00
   3.3752400e+00   1.8640100e+00
   3.2058700e+00   1.8615700e+00
   3.0075100e+00   1.8591300e+00
   2.9144300e+00   1.8569900e+00
   2.8503400e+00   1.8548600e+00
   2.7099600e+00   1.8530300e+00
   2.6367200e+00   1.8512000e+00
   2.5741600e+00   1.8493700e+00
   2.5344800e+00   1.8478400e+00
   2.5528000e+00   1.8466200e+00
   2.5405900e+00   1.8454000e+00
   2.6153600e+00   1.8447900e+00
   2.6321400e+00   1.8435700e+00
   2.6596100e+00   1.8429600e+00
   2.6962300e+00   1.8423500e+00
   2.6641800e+00   1.8420400e+00
   2.7084400e+00   1.8414300e+00
   2.6794400e+00   1.8411300e+00
   2.7298000e+00   1.8405200e+00
   2.7542100e+00   1.8399000e+00
   2.7389500e+00   1.8392900e+00
   2.7328500e+00   1.8383800e+00
   2.7648900e+00   1.8374600e+00
   2.7603100e+00   1.8362400e+00
   2.7816800e+00   1.8347200e+00
   2.7999900e+00   1.8331900e+00
   2.8045700e+00   1.8313600e+00
   2.7832000e+00   1.8295300e+00
   2.7694700e+00   1.8273900e+00
   2.7633700e+00   1.8252600e+00
   2.7893100e+00   1.8231200e+00
   2.7832000e+00   1.8209800e+00
   2.7572600e+00   1.8188500e+00
   2.7389500e+00   1.8164100e+00
   2.7999900e+00   1.8139600e+00
   2.7633700e+00   1.8112200e+00
   2.7740500e+00   1.8081700e+00
   2.7984600e+00   1.8051100e+00
   2.7511600e+00   1.8020600e+00
   2.7893100e+00   1.7987100e+00
   2.8015100e+00   1.7950400e+00
   2.7908300e+00   1.7913800e+00
   2.7771000e+00   1.7877200e+00
   2.7572600e+00   1.7837500e+00
   2.7908300e+00   1.7797900e+00
   2.7679400e+00   1.7755100e+00
   2.8366100e+00   1.7709400e+00
   2.8900100e+00   1.7657500e+00
   2.7740500e+00   1.7602500e+00
   2.7221700e+00   1.7544600e+00
   2.8335600e+00   1.7477400e+00
   2.8045700e+00   1.7410300e+00
   2.7847300e+00   1.7340100e+00
   2.8030400e+00   1.7269900e+00
   2.8091400e+00   1.7199700e+00
   2.7893100e+00   1.7132600e+00
   2.8015100e+00   1.7068500e+00
   2.8244000e+00   1.7004400e+00
   2.8625500e+00   1.6943400e+00
   2.8503400e+00   1.6882300e+00
   2.8335600e+00   1.6821300e+00
   2.8350800e+00   1.6760300e+00
   2.7954100e+00   1.6699200e+00
   2.8335600e+00   1.6638200e+00
   2.8335600e+00   1.6580200e+00
   2.8396600e+00   1.6522200e+00
   2.8457600e+00   1.6464200e+00
   2.8457600e+00   1.6403200e+00
   2.8411900e+00   1.6342200e+00
   2.8701800e+00   1.6284200e+00
   2.8427100e+00   1.6226200e+00
   2.8366100e+00   1.6168200e+00
   2.8350800e+00   1.6107200e+00
   2.8610200e+00   1.6052200e+00
   2.8930700e+00   1.5997300e+00
   2.8533900e+00   1.5945400e+00
   2.8610200e+00   1.5890500e+00
   2.8396600e+00   1.5832500e+00
   2.8488200e+00   1.5774500e+00
   2.8442400e+00   1.5716600e+00
   2.9083300e+00   1.5658600e+00
   2.8915400e+00   1.5600600e+00
   2.9190100e+00   1.5545700e+00
   2.9449500e+00   1.5493800e+00
   2.8442400e+00   1.5444900e+00
   2.9022200e+00   1.5396100e+00
   2.8610200e+00   1.5344200e+00
   2.9327400e+00   1.5298500e+00
   2.8869600e+00   1.5249600e+00
   2.9510500e+00   1.5203900e+00
   2.9510500e+00   1.5158100e+00
   2.8945900e+00   1.5115400e+00
   2.8671300e+00   1.5075700e+00
   2.9342700e+00   1.5039100e+00
   2.9083300e+00   1.5002400e+00
   2.8945900e+00   1.4965800e+00
   2.8900100e+00   1.4926100e+00
   2.9586800e+00   1.4892600e+00
   2.9174800e+00   1.4859000e+00
   2.9129000e+00   1.4825400e+00
   2.9418900e+00   1.4794900e+00
   2.9205300e+00   1.4764400e+00
   2.9480000e+00   1.4733900e+00
   2.9037500e+00   1.4703400e+00
   2.9205300e+00   1.4675900e+00
   2.9205300e+00   1.4648400e+00
   2.9083300e+00   1.4617900e+00
   2.9220600e+00   1.4590500e+00
   2.9007000e+00   1.4559900e+00
   2.9266400e+00   1.4529400e+00
   2.9510500e+00   1.4498900e+00
   2.9357900e+00   1.4465300e+00
   2.9708900e+00   1.4434800e+00
   2.9403700e+00   1.4404300e+00
   2.9296900e+00   1.4373800e+00
   2.9174800e+00   1.4346300e+00
   2.9190100e+00   1.4315800e+00
   2.9357900e+00   1.4285300e+00
   2.8823900e+00   1.4260900e+00
   2.9922500e+00   1.4230300e+00
   2.9235800e+00   1.4196800e+00
   2.9602100e+00   1.4163200e+00
   2.9220600e+00   1.4129600e+00
   2.8961200e+00   1.4099100e+00
   2.9846200e+00   1.4068600e+00
   2.8778100e+00   1.4041100e+00
   2.8732300e+00   1.4013700e+00
   2.8793300e+00   1.3986200e+00
   2.8900100e+00   1.3964800e+00
   2.8778100e+00   1.3943500e+00
   2.8457600e+00   1.3922100e+00
   2.8503400e+00   1.3897700e+00
   2.8457600e+00   1.3879400e+00
   2.8793300e+00   1.3858000e+00
   2.9434200e+00   1.3836700e+00
   2.8793300e+00   1.3815300e+00
   2.8610200e+00   1.3793900e+00
   2.8717000e+00   1.3769500e+00
   2.8427100e+00   1.3748200e+00
   2.8091400e+00   1.3723800e+00
   2.8427100e+00   1.3699300e+00
   2.7999900e+00   1.3674900e+00
   2.7816800e+00   1.3650500e+00
   2.8320300e+00   1.3623000e+00
   2.8503400e+00   1.3595600e+00
   2.8472900e+00   1.3568100e+00
   2.7908300e+00   1.3540600e+00
   2.8259300e+00   1.3507100e+00
   2.8167700e+00   1.3467400e+00
   2.8244000e+00   1.3418600e+00
   2.8244000e+00   1.3369800e+00
   2.8366100e+00   1.3317900e+00
   2.8183000e+00   1.3269000e+00
   2.8381300e+00   1.3217200e+00
   2.8671300e+00   1.3165300e+00
   2.8106700e+00   1.3113400e+00
   2.7786300e+00   1.3061500e+00
   2.8396600e+00   1.3012700e+00
   2.8411900e+00   1.2966900e+00
   2.8335600e+00   1.2915000e+00
   2.8167700e+00   1.2866200e+00
   2.8152500e+00   1.2814300e+00
   2.8244000e+00   1.2759400e+00
   2.9052700e+00   1.2710600e+00
   2.8396600e+00   1.2664800e+00
   2.8121900e+00   1.2616000e+00
   2.8152500e+00   1.2564100e+00
   2.8564500e+00   1.2518300e+00
   2.8427100e+00   1.2475600e+00
   2.8640700e+00   1.2429800e+00
   2.8625500e+00   1.2387100e+00
   2.8793300e+00   1.2347400e+00
   2.8366100e+00   1.2304700e+00
   2.8183000e+00   1.2262000e+00
   2.8686500e+00   1.2207000e+00
   2.8060900e+00   1.2146000e+00
   2.8762800e+00   1.2078900e+00
   2.8549200e+00   1.2014800e+00
   2.9007000e+00   1.1947600e+00
   2.8335600e+00   1.1886600e+00
   2.8472900e+00   1.1828600e+00
   2.8503400e+00   1.1773700e+00
   2.8228800e+00   1.1718800e+00
   2.8488200e+00   1.1669900e+00
   2.8656000e+00   1.1621100e+00
   2.8213500e+00   1.1575300e+00
   2.8228800e+00   1.1532600e+00
   2.8198200e+00   1.1492900e+00
   2.8884900e+00   1.1453200e+00
   2.8625500e+00   1.1416600e+00
   2.8808600e+00   1.1380000e+00
   2.9007000e+00   1.1346400e+00
   2.8350800e+00   1.1309800e+00
   2.7954100e+00   1.1276200e+00
   2.8564500e+00   1.1236600e+00
   2.8350800e+00   1.1200000e+00
   2.8366100e+00   1.1160300e+00
   2.8457600e+00   1.1123700e+00
   2.8442400e+00   1.1090100e+00
   2.8411900e+00   1.1062600e+00
   2.9022200e+00   1.1041300e+00
   2.8884900e+00   1.1026000e+00
   2.8427100e+00   1.1010700e+00
   2.8518700e+00   1.1001600e+00
   2.8884900e+00   1.0986300e+00
   2.8381300e+00   1.0968000e+00
   2.8686500e+00   1.0946700e+00
   2.9281600e+00   1.0922200e+00
   2.8884900e+00   1.0894800e+00
   2.9190100e+00   1.0864300e+00
   2.8839100e+00   1.0833700e+00
   2.8671300e+00   1.0803200e+00
   2.8747600e+00   1.0769700e+00
   2.8610200e+00   1.0742200e+00
   2.9830900e+00   1.0714700e+00
   2.8976400e+00   1.0684200e+00
   2.9037500e+00   1.0659800e+00
   2.8976400e+00   1.0635400e+00
   2.8793300e+00   1.0611000e+00
   2.9129000e+00   1.0589600e+00
   2.9647800e+00   1.0565200e+00
   3.0258200e+00   1.0543800e+00
   2.9480000e+00   1.0519400e+00
   3.0532800e+00   1.0495000e+00
   2.9647800e+00   1.0473600e+00
   2.9708900e+00   1.0449200e+00
   2.9190100e+00   1.0424800e+00
   2.9556300e+00   1.0403400e+00
   2.9464700e+00   1.0382100e+00
   2.9357900e+00   1.0363800e+00
   2.9052700e+00   1.0342400e+00
   2.9052700e+00   1.0321000e+00
   2.9022200e+00   1.0299700e+00
   2.9083300e+00   1.0278300e+00
   2.9144300e+00   1.0257000e+00
   2.9068000e+00   1.0238600e+00
   2.8762800e+00   1.0220300e+00
   2.8381300e+00   1.0202000e+00
   2.8564500e+00   1.0180700e+00
   2.8121900e+00   1.0165400e+00
   2.8472900e+00   1.0147100e+00
   2.8259300e+00   1.0131800e+00
   2.8060900e+00   1.0116600e+00
   2.8030400e+00   1.0101300e+00
   2.8320300e+00   1.0086100e+00
   2.7847300e+00   1.0073900e+00
   2.7923600e+00   1.0061600e+00
   2.8106700e+00   1.0049400e+00
   2.8427100e+00   1.0037200e+00
   2.7816800e+00   1.0025000e+00
   2.7740500e+00   1.0009800e+00
   2.7923600e+00   9.9975600e-01
   2.7984600e+00   9.9853500e-01
   2.7908300e+00   9.9731400e-01
   2.7771000e+00   9.9609400e-01
   2.7648900e+00   9.9456800e-01
   2.7694700e+00   9.9334700e-01
   2.8015100e+00   9.9182100e-01
   2.7832000e+00   9.9029500e-01
   2.8030400e+00   9.8877000e-01
   2.7832000e+00   9.8724400e-01
   2.7374300e+00   9.8510700e-01
   2.7694700e+00   9.8327600e-01
   2.7648900e+00   9.8114000e-01
   2.7954100e+00   9.7930900e-01
   2.7664200e+00   9.7717300e-01
   2.7496300e+00   9.7503700e-01
   2.7740500e+00   9.7290000e-01
   2.7923600e+00   9.7076400e-01
   2.7618400e+00   9.6832300e-01
   2.8457600e+00   9.6557600e-01
   2.8671300e+00   9.6283000e-01
   2.8976400e+00   9.5977800e-01
   2.9541000e+00   9.5672600e-01
   2.9785200e+00   9.5306400e-01
   3.0960100e+00   9.4940200e-01
   3.2455400e+00   9.4574000e-01
   3.4225500e+00   9.4207800e-01
   3.5614000e+00   9.3872100e-01
   3.7567100e+00   9.3566900e-01
   3.9062500e+00   9.3261700e-01
   3.9733900e+00   9.3017600e-01
   3.9367700e+00   9.2742900e-01
   3.9062500e+00   9.2468300e-01
   3.8482700e+00   9.2224100e-01
   3.6880500e+00   9.1980000e-01
   3.6499000e+00   9.1705300e-01
   3.5202000e+00   9.1461200e-01
   3.2287600e+00   9.1247600e-01
   3.0319200e+00   9.1003400e-01
   2.8808600e+00   9.0789800e-01
   2.7343800e+00   9.0545700e-01
   2.6306200e+00   9.0301500e-01
   2.5726300e+00   9.0087900e-01
   2.5405900e+00   8.9904800e-01
   2.5085400e+00   8.9752200e-01
   2.5756800e+00   8.9599600e-01
   2.6184100e+00   8.9416500e-01
   2.5955200e+00   8.9233400e-01
   2.6565600e+00   8.9050300e-01
   2.6870700e+00   8.8867200e-01
   2.6779200e+00   8.8684100e-01
   2.7069100e+00   8.8501000e-01
   2.7130100e+00   8.8317900e-01
   2.7664200e+00   8.8104200e-01
   2.7175900e+00   8.7890600e-01
   2.7328500e+00   8.7677000e-01
   2.8076200e+00   8.7493900e-01
   2.7877800e+00   8.7280300e-01
   2.7725200e+00   8.7036100e-01
   2.7603100e+00   8.6792000e-01
   2.7969400e+00   8.6517300e-01
   2.7679400e+00   8.6212200e-01
   2.7725200e+00   8.5876500e-01
   2.7969400e+00   8.5479700e-01
   2.7862500e+00   8.5113500e-01
   2.7877800e+00   8.4747300e-01
   2.7847300e+00   8.4411600e-01
   2.8106700e+00   8.4106400e-01
   2.7603100e+00   8.3831800e-01
   2.7389500e+00   8.3526600e-01
   2.7725200e+00   8.3252000e-01
   2.8030400e+00   8.3007800e-01
   2.7893100e+00   8.2733200e-01
   2.8121900e+00   8.2458500e-01
   2.7755700e+00   8.2183800e-01
   2.8183000e+00   8.1909200e-01
   2.8259300e+00   8.1665000e-01
   2.7877800e+00   8.1390400e-01
   2.7862500e+00   8.1115700e-01
   2.7999900e+00   8.0841100e-01
   2.7893100e+00   8.0505400e-01
   2.7694700e+00   8.0169700e-01
   2.8030400e+00   7.9803500e-01
   2.8213500e+00   7.9406700e-01
   2.7816800e+00   7.8979500e-01
   2.7664200e+00   7.8552200e-01
   2.8564500e+00   7.8094500e-01
   2.7694700e+00   7.7606200e-01
   2.8060900e+00   7.7179000e-01
   2.8076200e+00   7.6721200e-01
   2.8121900e+00   7.6324500e-01
   2.7771000e+00   7.5897200e-01
   2.8091400e+00   7.5500500e-01
   2.7938800e+00   7.5134300e-01
   2.7298000e+00   7.4798600e-01
   2.7755700e+00   7.4493400e-01
   2.7999900e+00   7.4188200e-01
   2.8518700e+00   7.3883100e-01
   2.8472900e+00   7.3608400e-01
   2.8518700e+00   7.3364300e-01
   2.8121900e+00   7.3120100e-01
   2.8320300e+00   7.2876000e-01
   2.8595000e+00   7.2692900e-01
   2.8717000e+00   7.2479200e-01
   2.8976400e+00   7.2296100e-01
   2.8381300e+00   7.2082500e-01
   2.8244000e+00   7.1899400e-01
   2.8335600e+00   7.1624800e-01
   2.8335600e+00   7.1350100e-01
   2.8579700e+00   7.1075400e-01
   2.8228800e+00   7.0800800e-01
   2.8564500e+00   7.0495600e-01
   2.8640700e+00   7.0220900e-01
   2.8396600e+00   6.9946300e-01
   2.8152500e+00   6.9702100e-01
   2.8640700e+00   6.9427500e-01
   2.8717000e+00   6.9213900e-01
   2.9205300e+00   6.9000200e-01
   2.8564500e+00   6.8817100e-01
   2.8915400e+00   6.8603500e-01
   2.8839100e+00   6.8420400e-01
   2.8915400e+00   6.8237300e-01
   2.8793300e+00   6.8023700e-01
   2.8839100e+00   6.7810100e-01
   2.8717000e+00   6.7565900e-01
   2.9266400e+00   6.7321800e-01
   2.9068000e+00   6.7047100e-01
   2.9068000e+00   6.6741900e-01
   2.8884900e+00   6.6467300e-01
   2.8808600e+00   6.6131600e-01
   2.8900100e+00   6.5826400e-01
   2.9159500e+00   6.5490700e-01
   2.9220600e+00   6.5063500e-01
   2.9373200e+00   6.4636200e-01
   2.9312100e+00   6.4178500e-01
   2.9281600e+00   6.3751200e-01
   2.9785200e+00   6.3293500e-01
   2.8976400e+00   6.2866200e-01
   2.9968300e+00   6.2408400e-01
   2.9281600e+00   6.1950700e-01
   2.9144300e+00   6.1523400e-01
   2.8900100e+00   6.1126700e-01
   2.9510500e+00   6.0760500e-01
   2.9312100e+00   6.0394300e-01
   2.9144300e+00   6.0058600e-01
   2.9327400e+00   5.9753400e-01
   2.9373200e+00   5.9448200e-01
   2.9190100e+00   5.9173600e-01
   2.9327400e+00   5.8929400e-01
   2.9571500e+00   5.8715800e-01
   2.9205300e+00   5.8471700e-01
   2.9113800e+00   5.8288600e-01
   2.8915400e+00   5.8105500e-01
   2.9052700e+00   5.7952900e-01
   2.9129000e+00   5.7800300e-01
   2.9022200e+00   5.7647700e-01
   2.9174800e+00   5.7495100e-01
   2.9052700e+00   5.7373000e-01
   2.9037500e+00   5.7189900e-01
   2.9525800e+00   5.7067900e-01
   2.8991700e+00   5.6915300e-01
   2.9220600e+00   5.6762700e-01
   2.9205300e+00   5.6640600e-01
   2.9174800e+00   5.6518600e-01
   2.8610200e+00   5.6396500e-01
   2.8747600e+00   5.6304900e-01
   2.8823900e+00   5.6213400e-01
   2.8686500e+00   5.6121800e-01
   2.8717000e+00   5.6030300e-01
   2.8900100e+00   5.5908200e-01
   2.9129000e+00   5.5847200e-01
   2.8518700e+00   5.5755600e-01
   2.8625500e+00   5.5664100e-01
   2.8793300e+00   5.5572500e-01
   2.8396600e+00   5.5481000e-01
   2.8320300e+00   5.5358900e-01
   2.8945900e+00   5.5267300e-01
   2.7618400e+00   5.5175800e-01
   2.8015100e+00   5.5084200e-01
   2.8457600e+00   5.5023200e-01
   2.8442400e+00   5.4931600e-01
   2.7648900e+00   5.4840100e-01
   2.7771000e+00   5.4748500e-01
   2.8091400e+00   5.4657000e-01
   2.7816800e+00   5.4595900e-01
   2.7999900e+00   5.4504400e-01
   2.8320300e+00   5.4412800e-01
   2.8350800e+00   5.4351800e-01
   2.8350800e+00   5.4321300e-01
   2.8228800e+00   5.4260300e-01
   2.8167700e+00   5.4199200e-01
   2.7984600e+00   5.4138200e-01
   2.8076200e+00   5.4107700e-01
   2.7832000e+00   5.4046600e-01
   2.7938800e+00   5.3985600e-01
   2.8320300e+00   5.3924600e-01
   2.8518700e+00   5.3863500e-01
   2.8259300e+00   5.3772000e-01
   2.8228800e+00   5.3710900e-01
   2.8671300e+00   5.3619400e-01
   2.8091400e+00   5.3497300e-01
   2.8472900e+00   5.3405800e-01
   2.8396600e+00   5.3283700e-01
   2.8549200e+00   5.3192100e-01
   2.7877800e+00   5.3070100e-01
   2.8183000e+00   5.2948000e-01
   2.8717000e+00   5.2856400e-01
   2.8839100e+00   5.2764900e-01
   2.8884900e+00   5.2642800e-01
   2.8732300e+00   5.2551300e-01
   2.8121900e+00   5.2429200e-01
   2.7984600e+00   5.2337600e-01
   2.8305100e+00   5.2246100e-01
   2.8060900e+00   5.2124000e-01
   2.7816800e+00   5.2032500e-01
   2.8045700e+00   5.1910400e-01
   2.9113800e+00   5.1788300e-01
   2.8839100e+00   5.1696800e-01
   2.8808600e+00   5.1605200e-01
   2.8900100e+00   5.1513700e-01
   2.8488200e+00   5.1422100e-01
   2.8121900e+00   5.1300000e-01
   2.8335600e+00   5.1178000e-01
   2.8320300e+00   5.1086400e-01
   2.8106700e+00   5.0994900e-01
   2.8488200e+00   5.0933800e-01
   2.8671300e+00   5.0811800e-01
   2.8457600e+00   5.0689700e-01
   2.8350800e+00   5.0567600e-01
   2.8457600e+00   5.0445600e-01
   2.8732300e+00   5.0323500e-01
   2.8457600e+00   5.0201400e-01
   2.8320300e+00   5.0079300e-01
   2.8335600e+00   4.9987800e-01
   2.8411900e+00   4.9865700e-01
   2.8381300e+00   4.9774200e-01
   2.8854400e+00   4.9682600e-01
   2.8564500e+00   4.9560500e-01
   2.8030400e+00   4.9438500e-01
   2.8152500e+00   4.9316400e-01
   2.8686500e+00   4.9224900e-01
   2.8442400e+00   4.9102800e-01
   2.8183000e+00   4.9011200e-01
   2.8350800e+00   4.8889200e-01
   2.8213500e+00   4.8797600e-01
   2.7923600e+00   4.8736600e-01
   2.8091400e+00   4.8645000e-01
   2.7999900e+00   4.8614500e-01
   2.8732300e+00   4.8553500e-01
   2.9037500e+00   4.8553500e-01
   2.8152500e+00   4.8522900e-01
   2.8350800e+00   4.8492400e-01
   2.8244000e+00   4.8461900e-01
   2.8457600e+00   4.8431400e-01
   2.8183000e+00   4.8400900e-01
   2.8030400e+00   4.8339800e-01
   2.7893100e+00   4.8278800e-01
   2.7801500e+00   4.8248300e-01
   2.8274500e+00   4.8187300e-01
   2.8106700e+00   4.8156700e-01
   2.8228800e+00   4.8126200e-01
   2.7740500e+00   4.8034700e-01
   2.8106700e+00   4.7943100e-01
   2.8564500e+00   4.7851600e-01
   2.8152500e+00   4.7760000e-01
   2.7954100e+00   4.7699000e-01
   2.8350800e+00   4.7607400e-01
   2.8106700e+00   4.7515900e-01
   2.7984600e+00   4.7363300e-01
   2.7954100e+00   4.7271700e-01
   2.7954100e+00   4.7180200e-01
   2.7877800e+00   4.7088600e-01
   2.7801500e+00   4.6997100e-01
   2.8106700e+00   4.6905500e-01
   2.7923600e+00   4.6783400e-01
   2.8060900e+00   4.6661400e-01
   2.8335600e+00   4.6508800e-01
   2.8350800e+00   4.6356200e-01
   2.8198200e+00   4.6203600e-01
   2.7786300e+00   4.6081500e-01
   2.7282700e+00   4.5959500e-01
   2.8076200e+00   4.5837400e-01
   2.8488200e+00   4.5684800e-01
   2.8625500e+00   4.5562700e-01
   2.8488200e+00   4.5440700e-01
   2.8183000e+00   4.5318600e-01
   2.8778100e+00   4.5227100e-01
   2.8747600e+00   4.5135500e-01
   2.8732300e+00   4.5074500e-01
   2.8472900e+00   4.4982900e-01
   2.8610200e+00   4.4891400e-01
   2.8701800e+00   4.4830300e-01
   2.8579700e+00   4.4769300e-01
   2.8656000e+00   4.4677700e-01
   2.8457600e+00   4.4616700e-01
   2.8442400e+00   4.4494600e-01
   2.8579700e+00   4.4433600e-01
   2.9007000e+00   4.4342000e-01
   2.8976400e+00   4.4250500e-01
   2.9007000e+00   4.4158900e-01
   2.8549200e+00   4.4128400e-01
   2.8839100e+00   4.4067400e-01
   2.9449500e+00   4.4006300e-01
   2.9647800e+00   4.3914800e-01
   2.8762800e+00   4.3853800e-01
   2.9388400e+00   4.3762200e-01
   2.9251100e+00   4.3609600e-01
   2.9007000e+00   4.3457000e-01
   2.9190100e+00   4.3304400e-01
   2.9022200e+00   4.3121300e-01
   2.9068000e+00   4.2938200e-01
   2.8976400e+00   4.2724600e-01
   2.8991700e+00   4.2480500e-01
   2.9190100e+00   4.2236300e-01
   2.8640700e+00   4.1961700e-01
   2.8778100e+00   4.1717500e-01
   2.8701800e+00   4.1442900e-01
   2.8411900e+00   4.1168200e-01
   2.8305100e+00   4.0924100e-01
   2.8472900e+00   4.0679900e-01
   2.8152500e+00   4.0435800e-01
   2.8137200e+00   4.0161100e-01
   2.7771000e+00   3.9886500e-01
   2.8411900e+00   3.9611800e-01
   2.7450600e+00   3.9306600e-01
   2.8076200e+00   3.9062500e-01
   2.7999900e+00   3.8818400e-01
   2.7542100e+00   3.8604700e-01
   2.7496300e+00   3.8391100e-01
   2.7923600e+00   3.8177500e-01
   2.7710000e+00   3.7994400e-01
   2.7542100e+00   3.7841800e-01
   2.7694700e+00   3.7658700e-01
   2.7465800e+00   3.7506100e-01
   2.7175900e+00   3.7353500e-01
   2.7267500e+00   3.7231400e-01
   2.7633700e+00   3.7109400e-01
   2.7740500e+00   3.6987300e-01
   2.7420000e+00   3.6865200e-01
   2.7496300e+00   3.6743200e-01
   2.7420000e+00   3.6621100e-01
   2.7298000e+00   3.6499000e-01
   2.7404800e+00   3.6407500e-01
   2.7313200e+00   3.6285400e-01
   2.7465800e+00   3.6193800e-01
   2.7267500e+00   3.6071800e-01
   2.7893100e+00   3.5949700e-01
   2.7496300e+00   3.5827600e-01
   2.7587900e+00   3.5736100e-01
   2.7679400e+00   3.5644500e-01
   2.7313200e+00   3.5553000e-01
   2.7374300e+00   3.5461400e-01
   2.7435300e+00   3.5369900e-01
   2.7984600e+00   3.5247800e-01
   2.8198200e+00   3.5156300e-01
   2.9235800e+00   3.5064700e-01
   2.9968300e+00   3.4942600e-01
   3.0944800e+00   3.4851100e-01
   3.3050500e+00   3.4729000e-01
   3.4683200e+00   3.4576400e-01
   3.5812400e+00   3.4423800e-01
   3.7384000e+00   3.4271200e-01
   3.8620000e+00   3.4149200e-01
   4.0100100e+00   3.4027100e-01
   3.9154100e+00   3.3905000e-01
   3.9077800e+00   3.3783000e-01
   3.9169300e+00   3.3630400e-01
   3.7765500e+00   3.3538800e-01
   3.6056500e+00   3.3416700e-01
   3.4103400e+00   3.3355700e-01
   3.1417800e+00   3.3294700e-01
   2.9418900e+00   3.3203100e-01
   2.8167700e+00   3.3142100e-01
   2.6855500e+00   3.3081100e-01
   2.5512700e+00   3.3050500e-01
   2.5039700e+00   3.3050500e-01
   2.4780300e+00   3.3020000e-01
   2.4963400e+00   3.2989500e-01
   2.5329600e+00   3.2959000e-01
   2.5619500e+00   3.2928500e-01
   2.5726300e+00   3.2897900e-01
   2.6077300e+00   3.2867400e-01
   2.6458700e+00   3.2836900e-01
   2.6687600e+00   3.2806400e-01
   2.7053800e+00   3.2745400e-01
   2.7008100e+00   3.2684300e-01
   2.6718100e+00   3.2592800e-01
   2.7099600e+00   3.2531700e-01
   2.7298000e+00   3.2409700e-01
   2.7206400e+00   3.2287600e-01
   2.7130100e+00   3.2165500e-01
   2.7175900e+00   3.2012900e-01
   2.7404800e+00   3.1860400e-01
   2.7450600e+00   3.1707800e-01
   2.6535000e+00   3.1555200e-01
   2.7130100e+00   3.1402600e-01
   2.6992800e+00   3.1189000e-01
   2.6565600e+00   3.0975300e-01
   2.7526900e+00   3.0761700e-01
   2.8106700e+00   3.0548100e-01
   2.7420000e+00   3.0334500e-01
   2.7175900e+00   3.0151400e-01
   2.7343800e+00   2.9998800e-01
   2.7359000e+00   2.9846200e-01
   2.7282700e+00   2.9693600e-01
   2.7145400e+00   2.9571500e-01
   2.7511600e+00   2.9449500e-01
   2.7343800e+00   2.9357900e-01
   2.7343800e+00   2.9266400e-01
   2.7542100e+00   2.9205300e-01
   2.7221700e+00   2.9144300e-01
   2.6931800e+00   2.9083300e-01
   2.7572600e+00   2.9022200e-01
   2.7374300e+00   2.8991700e-01
   2.6916500e+00   2.8930700e-01
   2.7404800e+00   2.8869600e-01
   2.7603100e+00   2.8808600e-01
   2.7679400e+00   2.8778100e-01
   2.7694700e+00   2.8717000e-01
   2.7832000e+00   2.8686500e-01
   2.7221700e+00   2.8625500e-01
   2.7145400e+00   2.8564500e-01
   2.7496300e+00   2.8503400e-01
   2.7435300e+00   2.8442400e-01
   2.7313200e+00   2.8381300e-01
   2.7313200e+00   2.8320300e-01
   2.7771000e+00   2.8259300e-01
   2.7343800e+00   2.8137200e-01
   2.8121900e+00   2.8045700e-01
   2.7969400e+00   2.7954100e-01
   2.7374300e+00   2.7862500e-01
   2.7023300e+00   2.7740500e-01
   2.7496300e+00   2.7587900e-01
   2.7801500e+00   2.7465800e-01
   2.7633700e+00   2.7313200e-01
   2.7282700e+00   2.7160600e-01
   2.7435300e+00   2.7038600e-01
   2.7908300e+00   2.6916500e-01
   2.7923600e+00   2.6794400e-01
   2.7938800e+00   2.6702900e-01
   2.7938800e+00   2.6580800e-01
   2.7435300e+00   2.6489300e-01
   2.7572600e+00   2.6367200e-01
   2.7496300e+00   2.6306200e-01
   2.7404800e+00   2.6214600e-01
   2.7526900e+00   2.6153600e-01
   2.8015100e+00   2.6062000e-01
   2.8137200e+00   2.6001000e-01
   2.7908300e+00   2.5939900e-01
   2.7969400e+00   2.5878900e-01
   2.8183000e+00   2.5817900e-01
   2.8106700e+00   2.5756800e-01
   2.8274500e+00   2.5665300e-01
   2.8396600e+00   2.5634800e-01
   2.8411900e+00   2.5604200e-01
   2.8137200e+00   2.5573700e-01
   2.8442400e+00   2.5512700e-01
   2.8366100e+00   2.5482200e-01
   2.7938800e+00   2.5421100e-01
   2.8259300e+00   2.5360100e-01
   2.8198200e+00   2.5299100e-01
   2.8518700e+00   2.5268600e-01
   2.8244000e+00   2.5207500e-01
   2.8671300e+00   2.5177000e-01
   2.8060900e+00   2.5116000e-01
   2.8350800e+00   2.5085400e-01
   2.8579700e+00   2.5024400e-01
   2.8030400e+00   2.4993900e-01
   2.7862500e+00   2.4932900e-01
   2.8259300e+00   2.4871800e-01
   2.8472900e+00   2.4810800e-01
   2.8564500e+00   2.4780300e-01
   2.8732300e+00   2.4719200e-01
   2.8732300e+00   2.4688700e-01
   2.8488200e+00   2.4627700e-01
   2.8121900e+00   2.4597200e-01
   2.8793300e+00   2.4566700e-01
   2.8381300e+00   2.4536100e-01
   2.8274500e+00   2.4505600e-01
   2.8701800e+00   2.4414100e-01
   2.8396600e+00   2.4353000e-01
   2.8488200e+00   2.4322500e-01
   2.8991700e+00   2.4261500e-01
   2.8930700e+00   2.4231000e-01
   2.8533900e+00   2.4169900e-01
   2.8595000e+00   2.4139400e-01
   2.8350800e+00   2.4078400e-01
   2.8060900e+00   2.4047900e-01
   2.8366100e+00   2.4017300e-01
   2.8381300e+00   2.3986800e-01
   2.8274500e+00   2.3956300e-01
   2.8137200e+00   2.3925800e-01
   2.8213500e+00   2.3895300e-01
   2.8564500e+00   2.3834200e-01
   2.8060900e+00   2.3803700e-01
   2.7633700e+00   2.3773200e-01
   2.8366100e+00   2.3742700e-01
   2.8091400e+00   2.3712200e-01
   2.7908300e+00   2.3681600e-01
   2.7771000e+00   2.3681600e-01
   2.8259300e+00   2.3651100e-01
   2.8427100e+00   2.3620600e-01
   2.8152500e+00   2.3590100e-01
   2.7694700e+00   2.3559600e-01
   2.7710000e+00   2.3529100e-01
   2.7694700e+00   2.3498500e-01
   2.7710000e+00   2.3468000e-01
   2.7282700e+00   2.3437500e-01
   2.7648900e+00   2.3407000e-01
   2.7710000e+00   2.3376500e-01
   2.7877800e+00   2.3376500e-01
   2.7252200e+00   2.3315400e-01
   2.7694700e+00   2.3315400e-01
   2.7206400e+00   2.3284900e-01
   2.7099600e+00   2.3254400e-01
   2.6947000e+00   2.3254400e-01
   2.7343800e+00   2.3223900e-01
   2.7725200e+00   2.3223900e-01
   2.7816800e+00   2.3193400e-01
   2.7359000e+00   2.3162800e-01
   2.7404800e+00   2.3132300e-01
   2.7252200e+00   2.3101800e-01
   2.7114900e+00   2.3101800e-01
   2.7542100e+00   2.3040800e-01
   2.7725200e+00   2.3010300e-01
   2.7313200e+00   2.3010300e-01
   2.7160600e+00   2.3010300e-01
   2.7603100e+00   2.2979700e-01
   2.7557400e+00   2.2979700e-01
   2.7404800e+00   2.2979700e-01
   2.7587900e+00   2.2949200e-01
   2.7450600e+00   2.2979700e-01
   2.7526900e+00   2.2949200e-01
   2.7511600e+00   2.2949200e-01
   2.7450600e+00   2.2949200e-01
   2.7389500e+00   2.2949200e-01
   2.7511600e+00   2.2949200e-01
   2.7130100e+00   2.2949200e-01
   2.7496300e+00   2.2949200e-01
   2.7938800e+00   2.2918700e-01
   2.7206400e+00   2.2888200e-01
   2.7343800e+00   2.2857700e-01
   2.7267500e+00   2.2857700e-01
   2.7648900e+00   2.2857700e-01
   2.7343800e+00   2.2827100e-01
   2.7694700e+00   2.2827100e-01
   2.8137200e+00   2.2796600e-01
   2.7679400e+00   2.2766100e-01
   2.7755700e+00   2.2766100e-01
   2.7587900e+00   2.2766100e-01
   2.7572600e+00   2.2735600e-01
   2.7816800e+00   2.2705100e-01
   2.7755700e+00   2.2705100e-01
   2.7587900e+00   2.2705100e-01
   2.7053800e+00   2.2705100e-01
   2.7023300e+00   2.2705100e-01
   2.7389500e+00   2.2674600e-01
   2.7114900e+00   2.2644000e-01
   2.7389500e+00   2.2644000e-01
   2.8137200e+00   2.2644000e-01
   2.8106700e+00   2.2613500e-01
   2.8030400e+00   2.2583000e-01
   2.7374300e+00   2.2552500e-01
   2.7206400e+00   2.2522000e-01
   2.7816800e+00   2.2522000e-01
   2.7847300e+00   2.2491500e-01
   2.7694700e+00   2.2491500e-01
   2.7618400e+00   2.2491500e-01
   2.6901200e+00   2.2460900e-01
   2.7282700e+00   2.2430400e-01
   2.7221700e+00   2.2430400e-01
   2.7389500e+00   2.2430400e-01
   2.7114900e+00   2.2430400e-01
   2.7832000e+00   2.2430400e-01
   2.7587900e+00   2.2430400e-01
   2.7191200e+00   2.2399900e-01
   2.7633700e+00   2.2369400e-01
   2.7465800e+00   2.2369400e-01
   2.7587900e+00   2.2338900e-01
   2.7236900e+00   2.2338900e-01
   2.7374300e+00   2.2308300e-01
   2.7145400e+00   2.2247300e-01
   2.7191200e+00   2.2247300e-01
   2.7114900e+00   2.2216800e-01
   2.7526900e+00   2.2186300e-01
   2.7786300e+00   2.2155800e-01
   2.7160600e+00   2.2125200e-01
   2.7099600e+00   2.2125200e-01
   2.7267500e+00   2.2094700e-01
   2.7496300e+00   2.2064200e-01
   2.7206400e+00   2.2064200e-01
   2.7221700e+00   2.2064200e-01
   2.7511600e+00   2.2064200e-01
   2.7450600e+00   2.2064200e-01
   2.7160600e+00   2.2064200e-01
   2.7236900e+00   2.2064200e-01
   2.7664200e+00   2.2033700e-01
   2.7359000e+00   2.2064200e-01
   2.7328500e+00   2.2064200e-01
   2.7267500e+00   2.2033700e-01
   2.6992800e+00   2.2033700e-01
   2.7236900e+00   2.2003200e-01
   2.7038600e+00   2.1972700e-01
   2.7374300e+00   2.1972700e-01
   2.7710000e+00   2.1972700e-01
   2.6718100e+00   2.1972700e-01
   2.7008100e+00   2.1972700e-01
   2.6748700e+00   2.1972700e-01
   2.6947000e+00   2.1972700e-01
   2.7313200e+00   2.1972700e-01
   2.7298000e+00   2.1972700e-01
   2.7282700e+00   2.1942100e-01
   2.7267500e+00   2.1942100e-01
   2.7404800e+00   2.1911600e-01
   2.7389500e+00   2.1911600e-01
   2.7206400e+00   2.1881100e-01
   2.7496300e+00   2.1881100e-01
   2.7053800e+00   2.1850600e-01
   2.6962300e+00   2.1850600e-01
   2.7633700e+00   2.1820100e-01
   2.7053800e+00   2.1820100e-01
   2.7114900e+00   2.1789600e-01
   2.7114900e+00   2.1789600e-01
   2.7038600e+00   2.1789600e-01
   2.7023300e+00   2.1789600e-01
   2.7435300e+00   2.1789600e-01
   2.7359000e+00   2.1759000e-01
   2.7114900e+00   2.1759000e-01
   2.7084400e+00   2.1759000e-01
   2.7175900e+00   2.1728500e-01
   2.6886000e+00   2.1728500e-01
   2.6763900e+00   2.1698000e-01
   2.7603100e+00   2.1698000e-01
   2.7557400e+00   2.1698000e-01
   2.6855500e+00   2.1728500e-01
   2.6916500e+00   2.1728500e-01
   2.7359000e+00   2.1698000e-01
   2.7069100e+00   2.1667500e-01
   2.6916500e+00   2.1667500e-01
   2.6840200e+00   2.1667500e-01
   2.6992800e+00   2.1637000e-01
   2.6901200e+00   2.1637000e-01
   2.6962300e+00   2.1637000e-01
   2.6931800e+00   2.1667500e-01
   2.7099600e+00   2.1667500e-01
   2.7282700e+00   2.1667500e-01
   2.7160600e+00   2.1637000e-01
   2.7114900e+00   2.1606400e-01
   2.7023300e+00   2.1606400e-01
   2.7160600e+00   2.1606400e-01
   2.6413000e+00   2.1606400e-01
   2.7587900e+00   2.1606400e-01
   2.7435300e+00   2.1606400e-01
   2.7679400e+00   2.1637000e-01
   2.7725200e+00   2.1637000e-01
   2.7450600e+00   2.1637000e-01
   2.7603100e+00   2.1606400e-01
   2.7374300e+00   2.1606400e-01
   2.7587900e+00   2.1575900e-01
   2.7267500e+00   2.1575900e-01
   2.7679400e+00   2.1545400e-01
   2.7755700e+00   2.1545400e-01
   2.8442400e+00   2.1514900e-01
   2.8106700e+00   2.1484400e-01
   2.7633700e+00   2.1484400e-01
   2.7710000e+00   2.1484400e-01
   2.8747600e+00   2.1484400e-01
   2.7969400e+00   2.1484400e-01
   2.8259300e+00   2.1484400e-01
   2.8106700e+00   2.1484400e-01
   2.7877800e+00   2.1514900e-01
   2.7908300e+00   2.1514900e-01
   2.7938800e+00   2.1545400e-01
   2.7999900e+00   2.1545400e-01
   2.7877800e+00   2.1545400e-01
   2.7664200e+00   2.1575900e-01
   2.7648900e+00   2.1545400e-01
   2.7298000e+00   2.1514900e-01
   2.7710000e+00   2.1514900e-01
   2.7710000e+00   2.1545400e-01
   2.7969400e+00   2.1545400e-01
   2.7526900e+00   2.1575900e-01
   2.7420000e+00   2.1606400e-01
   2.7465800e+00   2.1637000e-01
   2.7359000e+00   2.1667500e-01
   2.6962300e+00   2.1698000e-01
   2.7587900e+00   2.1759000e-01
   2.7374300e+00   2.1789600e-01
   2.7282700e+00   2.1850600e-01
   2.7465800e+00   2.1881100e-01
   2.7236900e+00   2.1911600e-01
   2.7053800e+00   2.1942100e-01
   2.7282700e+00   2.1972700e-01
   2.7130100e+00   2.1972700e-01
   2.6809700e+00   2.1972700e-01
   2.6702900e+00   2.1972700e-01
   2.7191200e+00   2.2003200e-01
   2.6580800e+00   2.2033700e-01
   2.6794400e+00   2.2064200e-01
   2.7038600e+00   2.2094700e-01
   2.7160600e+00   2.2155800e-01
   2.6947000e+00   2.2186300e-01
   2.7191200e+00   2.2216800e-01
   2.7328500e+00   2.2247300e-01
   2.6962300e+00   2.2277800e-01
   2.6702900e+00   2.2308300e-01
   2.6580800e+00   2.2338900e-01
   2.6870700e+00   2.2369400e-01
   2.6397700e+00   2.2369400e-01
   2.6962300e+00   2.2399900e-01
   2.6901200e+00   2.2399900e-01
   2.6962300e+00   2.2430400e-01
   2.7465800e+00   2.2460900e-01
   2.6748700e+00   2.2522000e-01
   2.6428200e+00   2.2522000e-01
   2.6397700e+00   2.2552500e-01
   2.6977500e+00   2.2583000e-01
   2.7298000e+00   2.2583000e-01
   2.7969400e+00   2.2613500e-01
   2.8778100e+00   2.2644000e-01
   2.9525800e+00   2.2705100e-01
   3.0593900e+00   2.2735600e-01
   3.2211300e+00   2.2766100e-01
   3.3737200e+00   2.2796600e-01
   3.5064700e+00   2.2827100e-01
   3.6682100e+00   2.2857700e-01
   3.8162200e+00   2.2857700e-01
   3.8147000e+00   2.2888200e-01
   3.8589500e+00   2.2918700e-01
   3.8543700e+00   2.2949200e-01
   3.7521400e+00   2.2979700e-01
   3.6560100e+00   2.3010300e-01
   3.5049400e+00   2.3010300e-01
   3.3721900e+00   2.3010300e-01
   3.1036400e+00   2.3040800e-01
   2.9113800e+00   2.3071300e-01
   2.7816800e+00   2.3071300e-01
   2.6336700e+00   2.3101800e-01
   2.5177000e+00   2.3101800e-01
   2.4826000e+00   2.3132300e-01
   2.4932900e+00   2.3162800e-01
   2.5283800e+00   2.3193400e-01
   2.5497400e+00   2.3254400e-01
   2.5909400e+00   2.3345900e-01
   2.5299100e+00   2.3437500e-01
   2.5528000e+00   2.3559600e-01
   2.6077300e+00   2.3742700e-01
   2.6626600e+00   2.3986800e-01
   2.6413000e+00   2.4292000e-01
   2.6458700e+00   2.4688700e-01
   2.6779200e+00   2.5207500e-01
   2.7221700e+00   2.5787400e-01
   2.6977500e+00   2.6458700e-01
   2.7008100e+00   2.7130100e-01
   2.6626600e+00   2.7832000e-01
   2.6718100e+00   2.8472900e-01
   2.6947000e+00   2.9052700e-01
   2.6962300e+00   2.9602100e-01
   2.6779200e+00   3.0120800e-01
   2.6992800e+00   3.0578600e-01
   2.6718100e+00   3.1005900e-01
   2.6519800e+00   3.1402600e-01
   2.6855500e+00   3.1768800e-01
   2.7053800e+00   3.2104500e-01
   2.6947000e+00   3.2379200e-01
   2.7008100e+00   3.2653800e-01
   2.7847300e+00   3.2959000e-01
   2.6977500e+00   3.3294700e-01
   2.7465800e+00   3.3660900e-01
   2.7160600e+00   3.4057600e-01
   2.7008100e+00   3.4515400e-01
   2.6779200e+00   3.5034200e-01
   2.7038600e+00   3.5553000e-01
   2.7511600e+00   3.6132800e-01
   2.7282700e+00   3.6712600e-01
   2.7191200e+00   3.7323000e-01
   2.7893100e+00   3.7933300e-01
   2.7053800e+00   3.8543700e-01
   2.7175900e+00   3.9093000e-01
   2.7145400e+00   3.9642300e-01
   2.7069100e+00   4.0130600e-01
   2.6947000e+00   4.0588400e-01
   2.6947000e+00   4.0985100e-01
   2.7389500e+00   4.1381800e-01
   2.7206400e+00   4.1717500e-01
   2.7145400e+00   4.1992200e-01
   2.7374300e+00   4.2266800e-01
   2.7313200e+00   4.2480500e-01
   2.7557400e+00   4.2663600e-01
   2.7282700e+00   4.2816200e-01
   2.7893100e+00   4.2938200e-01
   2.7633700e+00   4.3060300e-01
   2.7587900e+00   4.3151900e-01
   2.7542100e+00   4.3212900e-01
   2.7603100e+00   4.3304400e-01
   2.7389500e+00   4.3365500e-01
   2.7282700e+00   4.3457000e-01
   2.7328500e+00   4.3548600e-01
   2.7908300e+00   4.3640100e-01
   2.8030400e+00   4.3701200e-01
   2.8045700e+00   4.3762200e-01
   2.7725200e+00   4.3884300e-01
   2.7771000e+00   4.3945300e-01
   2.8274500e+00   4.4036900e-01
   2.7389500e+00   4.4097900e-01
   2.8244000e+00   4.4220000e-01
   2.8350800e+00   4.4311500e-01
   2.7847300e+00   4.4433600e-01
   2.7374300e+00   4.4586200e-01
   2.7236900e+00   4.4738800e-01
   2.7694700e+00   4.4891400e-01
   2.7664200e+00   4.5074500e-01
   2.8320300e+00   4.5227100e-01
   2.8320300e+00   4.5410200e-01
   2.7938800e+00   4.5562700e-01
   2.7908300e+00   4.5684800e-01
   2.8472900e+00   4.5806900e-01
   2.8228800e+00   4.5959500e-01
   2.8183000e+00   4.6112100e-01
   2.7969400e+00   4.6234100e-01
   2.7664200e+00   4.6356200e-01
   2.7694700e+00   4.6478300e-01
   2.8564500e+00   4.6600300e-01
   2.8442400e+00   4.6722400e-01
   2.8686500e+00   4.6844500e-01
   2.7999900e+00   4.6997100e-01
   2.8595000e+00   4.7119100e-01
   2.7999900e+00   4.7241200e-01
   2.7847300e+00   4.7363300e-01
   2.7984600e+00   4.7485400e-01
   2.8656000e+00   4.7637900e-01
   2.8121900e+00   4.7760000e-01
   2.8533900e+00   4.7851600e-01
   2.8442400e+00   4.7973600e-01
   2.8549200e+00   4.8095700e-01
   2.8656000e+00   4.8248300e-01
   2.8335600e+00   4.8370400e-01
   2.7984600e+00   4.8522900e-01
   2.8411900e+00   4.8675500e-01
   2.8305100e+00   4.8828100e-01
   2.8625500e+00   4.8980700e-01
   2.8335600e+00   4.9133300e-01
   2.8442400e+00   4.9316400e-01
   2.8457600e+00   4.9469000e-01
   2.8778100e+00   4.9652100e-01
   2.8472900e+00   4.9804700e-01
   2.8640700e+00   4.9987800e-01
   2.8015100e+00   5.0201400e-01
   2.8411900e+00   5.0415000e-01
   2.8518700e+00   5.0659200e-01
   2.8503400e+00   5.0933800e-01
   2.8320300e+00   5.1208500e-01
   2.8610200e+00   5.1483200e-01
   2.8717000e+00   5.1727300e-01
   2.8442400e+00   5.1971400e-01
   2.8121900e+00   5.2215600e-01
   2.8366100e+00   5.2459700e-01
   2.8335600e+00   5.2673300e-01
   2.8457600e+00   5.2856400e-01
   2.8945900e+00   5.3039600e-01
   2.8656000e+00   5.3222700e-01
   2.8640700e+00   5.3405800e-01
   2.8198200e+00   5.3619400e-01
   2.8350800e+00   5.3833000e-01
   2.7999900e+00   5.4077100e-01
   2.7755700e+00   5.4321300e-01
   2.8030400e+00   5.4565400e-01
   2.8366100e+00   5.4870600e-01
   2.8060900e+00   5.5175800e-01
   2.7969400e+00   5.5511500e-01
   2.7710000e+00   5.5847200e-01
   2.8152500e+00   5.6213400e-01
   2.7877800e+00   5.6579600e-01
   2.7740500e+00   5.6915300e-01
   2.7740500e+00   5.7251000e-01
   2.7633700e+00   5.7586700e-01
   2.7572600e+00   5.7891800e-01
   2.7618400e+00   5.8197000e-01
   2.7755700e+00   5.8532700e-01
   2.7175900e+00   5.8837900e-01
   2.8198200e+00   5.9143100e-01
   2.7542100e+00   5.9417700e-01
   2.7710000e+00   5.9722900e-01
   2.7679400e+00   6.0089100e-01
   2.7206400e+00   6.0546900e-01
   2.7145400e+00   6.1035200e-01
   2.7633700e+00   6.1523400e-01
   2.7893100e+00   6.2042200e-01
   2.8396600e+00   6.2561000e-01
   2.8198200e+00   6.3079800e-01
   2.8091400e+00   6.3629200e-01
   2.7450600e+00   6.4147900e-01
   2.7786300e+00   6.4636200e-01
   2.8076200e+00   6.5063500e-01
   2.8060900e+00   6.5460200e-01
   2.8472900e+00   6.5826400e-01
   2.7511600e+00   6.6192600e-01
   2.7435300e+00   6.6619900e-01
   2.7618400e+00   6.7108200e-01
   2.7572600e+00   6.7657500e-01
   2.7801500e+00   6.8237300e-01
   2.7618400e+00   6.8878200e-01
   2.7908300e+00   6.9519000e-01
   2.7832000e+00   7.0190400e-01
   2.7496300e+00   7.0892300e-01
   2.8274500e+00   7.1563700e-01
   2.8259300e+00   7.2204600e-01
   2.7938800e+00   7.2784400e-01
   2.7923600e+00   7.3364300e-01
   2.8076200e+00   7.3944100e-01
   2.7954100e+00   7.4432400e-01
   2.8396600e+00   7.4920700e-01
   2.7755700e+00   7.5347900e-01
   2.7893100e+00   7.5775100e-01
   2.7847300e+00   7.6202400e-01
   2.7740500e+00   7.6599100e-01
   2.7374300e+00   7.6965300e-01
   2.8167700e+00   7.7270500e-01
   2.7648900e+00   7.7545200e-01
   2.8366100e+00   7.7819800e-01
   2.8121900e+00   7.8094500e-01
   2.7984600e+00   7.8369100e-01
   2.8183000e+00   7.8643800e-01
   2.7923600e+00   7.8979500e-01
   2.7832000e+00   7.9315200e-01
   2.8091400e+00   7.9711900e-01
   2.7984600e+00   8.0108600e-01
   2.7755700e+00   8.0535900e-01
   2.8030400e+00   8.0963100e-01
   2.7603100e+00   8.1420900e-01
   2.8076200e+00   8.1878700e-01
   2.7511600e+00   8.2336400e-01
   2.7725200e+00   8.2824700e-01
   2.7877800e+00   8.3252000e-01
   2.7740500e+00   8.3709700e-01
   2.7786300e+00   8.4137000e-01
   2.7832000e+00   8.4533700e-01
   2.7893100e+00   8.4960900e-01
   2.7526900e+00   8.5357700e-01
   2.7420000e+00   8.5723900e-01
   2.7465800e+00   8.6120600e-01
   2.7877800e+00   8.6486800e-01
   2.8030400e+00   8.6853000e-01
   2.7587900e+00   8.7219200e-01
   2.7542100e+00   8.7616000e-01
   2.7282700e+00   8.7982200e-01
   2.8183000e+00   8.8409400e-01
   2.7999900e+00   8.8806200e-01
   2.7847300e+00   8.9202900e-01
   2.7801500e+00   8.9599600e-01
   2.8015100e+00   8.9965800e-01
   2.7877800e+00   9.0301500e-01
   2.7877800e+00   9.0637200e-01
   2.8045700e+00   9.0942400e-01
   2.7801500e+00   9.1217000e-01
   2.7557400e+00   9.1491700e-01
   2.7679400e+00   9.1705300e-01
   2.7374300e+00   9.1949500e-01
   2.7679400e+00   9.2132600e-01
   2.7694700e+00   9.2346200e-01
   2.7587900e+00   9.2529300e-01
   2.7496300e+00   9.2712400e-01
   2.8411900e+00   9.2926000e-01
   2.7618400e+00   9.3109100e-01
   2.7648900e+00   9.3322800e-01
   2.7694700e+00   9.3536400e-01
   2.7679400e+00   9.3750000e-01
   2.7603100e+00   9.3963600e-01
   2.7389500e+00   9.4146700e-01
   2.7435300e+00   9.4360400e-01
   2.7771000e+00   9.4574000e-01
   2.7435300e+00   9.4818100e-01
   2.7374300e+00   9.5031700e-01
   2.7725200e+00   9.5275900e-01
   2.7633700e+00   9.5520000e-01
   2.7526900e+00   9.5764200e-01
   2.7954100e+00   9.5977800e-01
   2.7450600e+00   9.6191400e-01
   2.7893100e+00   9.6405000e-01
   2.7420000e+00   9.6649200e-01
   2.8106700e+00   9.6893300e-01
   2.7465800e+00   9.7137500e-01
   2.7496300e+00   9.7351100e-01
   2.7053800e+00   9.7564700e-01
   2.7313200e+00   9.7747800e-01
   2.6779200e+00   9.7900400e-01
   2.8045700e+00   9.8083500e-01
   2.8213500e+00   9.8236100e-01
   2.7862500e+00   9.8388700e-01
   2.7557400e+00   9.8510700e-01
   2.7679400e+00   9.8632800e-01
   2.7526900e+00   9.8754900e-01
   2.7648900e+00   9.8907500e-01
   2.7404800e+00   9.9029500e-01
   2.7435300e+00   9.9182100e-01
   2.7359000e+00   9.9273700e-01
   2.7542100e+00   9.9395800e-01
   2.7648900e+00   9.9548300e-01
   2.7954100e+00   9.9670400e-01
   2.7603100e+00   9.9792500e-01
   2.7450600e+00   9.9945100e-01
   2.7435300e+00   1.0006700e+00
   2.7313200e+00   1.0018900e+00
   2.8411900e+00   1.0034200e+00
   2.7587900e+00   1.0049400e+00
   2.7267500e+00   1.0064700e+00
   2.7618400e+00   1.0083000e+00
   2.7420000e+00   1.0098300e+00
   2.8060900e+00   1.0116600e+00
   2.7786300e+00   1.0131800e+00
   2.7313200e+00   1.0150100e+00
   2.7404800e+00   1.0165400e+00
   2.7801500e+00   1.0177600e+00
   2.7450600e+00   1.0189800e+00
   2.7435300e+00   1.0195900e+00
   2.7496300e+00   1.0205100e+00
   2.7862500e+00   1.0214200e+00
   2.7114900e+00   1.0226400e+00
   2.8396600e+00   1.0235600e+00
   2.7664200e+00   1.0247800e+00
   2.7526900e+00   1.0260000e+00
   2.7053800e+00   1.0272200e+00
   2.7389500e+00   1.0281400e+00
   2.7252200e+00   1.0290500e+00
   2.7694700e+00   1.0299700e+00
   2.8259300e+00   1.0308800e+00
   2.8137200e+00   1.0314900e+00
   2.8198200e+00   1.0324100e+00
   2.8152500e+00   1.0333300e+00
   2.8518700e+00   1.0342400e+00
   2.8060900e+00   1.0348500e+00
   2.7557400e+00   1.0354600e+00
   2.7847300e+00   1.0363800e+00
   2.7816800e+00   1.0372900e+00
   2.7908300e+00   1.0382100e+00
   2.8183000e+00   1.0388200e+00
   2.8396600e+00   1.0397300e+00
   2.8198200e+00   1.0406500e+00
   2.8335600e+00   1.0412600e+00
   2.8152500e+00   1.0421800e+00
   2.8625500e+00   1.0430900e+00
   2.8533900e+00   1.0440100e+00
   2.8900100e+00   1.0449200e+00
   2.8732300e+00   1.0458400e+00
   2.8549200e+00   1.0467500e+00
   2.8228800e+00   1.0473600e+00
   2.8350800e+00   1.0482800e+00
   2.8076200e+00   1.0491900e+00
   2.8076200e+00   1.0504200e+00
   2.8472900e+00   1.0513300e+00
   2.8183000e+00   1.0525500e+00
   2.8228800e+00   1.0537700e+00
   2.8167700e+00   1.0549900e+00
   2.8198200e+00   1.0559100e+00
   2.7938800e+00   1.0574300e+00
   2.8091400e+00   1.0589600e+00
   2.8183000e+00   1.0607900e+00
   2.8091400e+00   1.0626200e+00
   2.7786300e+00   1.0644500e+00
   2.7511600e+00   1.0659800e+00
   2.8030400e+00   1.0681200e+00
   2.7633700e+00   1.0702500e+00
   2.7816800e+00   1.0739100e+00
   2.7786300e+00   1.0791000e+00
   2.7465800e+00   1.0855100e+00
   2.7557400e+00   1.0925300e+00
   2.7572600e+00   1.0995500e+00
   2.7145400e+00   1.1062600e+00
   2.6977500e+00   1.1123700e+00
   2.7252200e+00   1.1184700e+00
   2.7053800e+00   1.1236600e+00
   2.7816800e+00   1.1288500e+00
   2.8305100e+00   1.1331200e+00
   2.7664200e+00   1.1370800e+00
   2.7603100e+00   1.1410500e+00
   2.7313200e+00   1.1444100e+00
   2.7786300e+00   1.1471600e+00
   2.7252200e+00   1.1499000e+00
   2.7648900e+00   1.1523400e+00
   2.7847300e+00   1.1547900e+00
   2.7648900e+00   1.1572300e+00
   2.7236900e+00   1.1596700e+00
   2.7374300e+00   1.1618000e+00
   2.7679400e+00   1.1639400e+00
   2.7420000e+00   1.1660800e+00
   2.7267500e+00   1.1682100e+00
   2.7511600e+00   1.1703500e+00
   2.6977500e+00   1.1724900e+00
   2.7313200e+00   1.1746200e+00
   2.7465800e+00   1.1767600e+00
   2.8060900e+00   1.1788900e+00
   2.7923600e+00   1.1810300e+00
   2.8884900e+00   1.1834700e+00
   2.9464700e+00   1.1856100e+00
   3.0517600e+00   1.1877400e+00
   3.1127900e+00   1.1895800e+00
   3.2531700e+00   1.1917100e+00
   3.3813500e+00   1.1935400e+00
   3.5339400e+00   1.1953700e+00
   3.6560100e+00   1.1972000e+00
   3.7033100e+00   1.1990400e+00
   3.6804200e+00   1.2005600e+00
   3.6682100e+00   1.2017800e+00
   3.6285400e+00   1.2033100e+00
   3.5171500e+00   1.2045300e+00
   3.3523600e+00   1.2057500e+00
   3.1845100e+00   1.2066700e+00
   3.0365000e+00   1.2081900e+00
   2.9495200e+00   1.2094100e+00
   2.8717000e+00   1.2106300e+00
   2.7359000e+00   1.2118500e+00
   2.6992800e+00   1.2130700e+00
   2.6550300e+00   1.2142900e+00
   2.6580800e+00   1.2158200e+00
   2.6184100e+00   1.2170400e+00
   2.5558500e+00   1.2182600e+00
   2.5894200e+00   1.2197900e+00
   2.6107800e+00   1.2210100e+00
   2.6138300e+00   1.2225300e+00
   2.6458700e+00   1.2240600e+00
   2.6367200e+00   1.2255900e+00
   2.6397700e+00   1.2271100e+00
   2.6290900e+00   1.2286400e+00
   2.6687600e+00   1.2301600e+00
   2.7221700e+00   1.2316900e+00
   2.6825000e+00   1.2332200e+00
   2.6840200e+00   1.2344400e+00
   2.7313200e+00   1.2353500e+00
   2.7771000e+00   1.2359600e+00
   2.7526900e+00   1.2362700e+00
   2.7282700e+00   1.2362700e+00
   2.7679400e+00   1.2356600e+00
   2.7679400e+00   1.2353500e+00
   2.7526900e+00   1.2347400e+00
   2.7954100e+00   1.2341300e+00
   2.7648900e+00   1.2332200e+00
   2.7786300e+00   1.2329100e+00
   2.7572600e+00   1.2323000e+00
   2.7938800e+00   1.2316900e+00
   2.7648900e+00   1.2313800e+00
   2.7618400e+00   1.2307700e+00
   2.7679400e+00   1.2304700e+00
   2.8030400e+00   1.2301600e+00
   2.8076200e+00   1.2298600e+00
   2.7710000e+00   1.2292500e+00
   2.7877800e+00   1.2286400e+00
   2.8167700e+00   1.2283300e+00
   2.8091400e+00   1.2280300e+00
   2.7999900e+00   1.2277200e+00
   2.8091400e+00   1.2274200e+00
   2.7648900e+00   1.2271100e+00
   2.7160600e+00   1.2268100e+00
   2.7572600e+00   1.2268100e+00
   2.8091400e+00   1.2265000e+00
   2.7725200e+00   1.2262000e+00
   2.7938800e+00   1.2258900e+00
   2.9007000e+00   1.2255900e+00
   2.8564500e+00   1.2252800e+00
   2.8595000e+00   1.2249800e+00
   2.8396600e+00   1.2246700e+00
   2.8213500e+00   1.2243700e+00
   2.7938800e+00   1.2240600e+00
   2.7710000e+00   1.2234500e+00
   2.7969400e+00   1.2228400e+00
   2.8152500e+00   1.2225300e+00
   2.8106700e+00   1.2222300e+00
   2.8579700e+00   1.2219200e+00
   2.8305100e+00   1.2213100e+00
   2.8533900e+00   1.2207000e+00
   2.8533900e+00   1.2204000e+00
   2.8274500e+00   1.2200900e+00
   2.7893100e+00   1.2200900e+00
   2.8350800e+00   1.2200900e+00
   2.8732300e+00   1.2200900e+00
   2.8350800e+00   1.2200900e+00
   2.8625500e+00   1.2200900e+00
   2.8472900e+00   1.2200900e+00
   2.8213500e+00   1.2204000e+00
   2.9220600e+00   1.2207000e+00
   2.8656000e+00   1.2207000e+00
   2.8396600e+00   1.2207000e+00
   2.8183000e+00   1.2213100e+00
   2.8549200e+00   1.2216200e+00
   2.8854400e+00   1.2225300e+00
   2.8930700e+00   1.2231400e+00
   2.9083300e+00   1.2240600e+00
   2.8915400e+00   1.2246700e+00
   2.8503400e+00   1.2252800e+00
   2.9281600e+00   1.2255900e+00
   2.8549200e+00   1.2258900e+00
   2.8717000e+00   1.2262000e+00
   2.8884900e+00   1.2265000e+00
   2.9693600e+00   1.2265000e+00
   3.0014000e+00   1.2265000e+00
   2.8900100e+00   1.2265000e+00
   2.9373200e+00   1.2265000e+00
   2.9205300e+00   1.2262000e+00
   2.9068000e+00   1.2262000e+00
   2.8945900e+00   1.2258900e+00
   2.9251100e+00   1.2255900e+00
   2.9266400e+00   1.2258900e+00
   2.9312100e+00   1.2262000e+00
   2.9510500e+00   1.2265000e+00
   2.9022200e+00   1.2268100e+00
   2.9693600e+00   1.2268100e+00
   2.9464700e+00   1.2271100e+00
   2.9464700e+00   1.2277200e+00
   2.9525800e+00   1.2283300e+00
   2.9480000e+00   1.2292500e+00
   2.9342700e+00   1.2301600e+00
   2.9281600e+00   1.2310800e+00
   2.9342700e+00   1.2316900e+00
   2.9754600e+00   1.2323000e+00
   3.0029300e+00   1.2326000e+00
   2.9708900e+00   1.2332200e+00
   2.9617300e+00   1.2335200e+00
   2.9586800e+00   1.2338300e+00
   2.9769900e+00   1.2341300e+00
   2.9708900e+00   1.2344400e+00
   2.9113800e+00   1.2347400e+00
   2.9541000e+00   1.2347400e+00
   2.9663100e+00   1.2347400e+00
   2.9678300e+00   1.2350500e+00
   2.9373200e+00   1.2347400e+00
   2.9434200e+00   1.2344400e+00
   2.9602100e+00   1.2347400e+00
   2.9769900e+00   1.2347400e+00
   2.9892000e+00   1.2344400e+00
   2.9724100e+00   1.2341300e+00
   2.9678300e+00   1.2341300e+00
   2.9190100e+00   1.2338300e+00
   2.8900100e+00   1.2338300e+00
   2.9205300e+00   1.2338300e+00
   2.9464700e+00   1.2335200e+00
   2.9678300e+00   1.2329100e+00
   2.9510500e+00   1.2326000e+00
   2.9785200e+00   1.2319900e+00
   2.9434200e+00   1.2316900e+00
   2.9403700e+00   1.2310800e+00
   2.9281600e+00   1.2304700e+00
   2.9144300e+00   1.2298600e+00
   2.8366100e+00   1.2292500e+00
   2.9235800e+00   1.2283300e+00
   2.8915400e+00   1.2277200e+00
   2.8717000e+00   1.2268100e+00
   2.9113800e+00   1.2262000e+00
   2.9113800e+00   1.2255900e+00
   2.8396600e+00   1.2249800e+00
   2.8747600e+00   1.2243700e+00
   2.8869600e+00   1.2237500e+00
   2.8747600e+00   1.2237500e+00
   2.8533900e+00   1.2234500e+00
   2.8991700e+00   1.2234500e+00
   2.8991700e+00   1.2234500e+00
   2.9083300e+00   1.2234500e+00
   2.9007000e+00   1.2237500e+00
   2.8976400e+00   1.2237500e+00
   2.8839100e+00   1.2237500e+00
   2.9007000e+00   1.2240600e+00
   2.8518700e+00   1.2243700e+00
   2.8869600e+00   1.2243700e+00
   2.8411900e+00   1.2243700e+00
   2.8701800e+00   1.2246700e+00
   2.8778100e+00   1.2249800e+00
   2.8869600e+00   1.2249800e+00
   2.8717000e+00   1.2252800e+00
   2.9113800e+00   1.2255900e+00
   2.8884900e+00   1.2252800e+00
   2.8823900e+00   1.2252800e+00
   2.8518700e+00   1.2252800e+00
   2.8701800e+00   1.2249800e+00
   2.8610200e+00   1.2246700e+00
   2.9983500e+00   1.2246700e+00
   2.9571500e+00   1.2246700e+00
   2.8930700e+00   1.2246700e+00
   2.8915400e+00   1.2249800e+00
   2.9083300e+00   1.2249800e+00
   2.8945900e+00   1.2249800e+00
   2.8961200e+00   1.2249800e+00
   2.9342700e+00   1.2249800e+00
   2.8869600e+00   1.2249800e+00
   2.8823900e+00   1.2249800e+00
   2.8732300e+00   1.2249800e+00
   2.9434200e+00   1.2249800e+00
   2.9586800e+00   1.2249800e+00
   2.8991700e+00   1.2249800e+00
   2.8915400e+00   1.2252800e+00
   2.8747600e+00   1.2252800e+00
   2.9052700e+00   1.2255900e+00
   2.9327400e+00   1.2258900e+00
   2.9449500e+00   1.2262000e+00
   2.9220600e+00   1.2262000e+00
   2.8976400e+00   1.2265000e+00
   2.9281600e+00   1.2268100e+00
   2.8945900e+00   1.2271100e+00
   2.9037500e+00   1.2274200e+00
   2.8945900e+00   1.2274200e+00
   2.8656000e+00   1.2274200e+00
   2.8945900e+00   1.2277200e+00
   2.8869600e+00   1.2280300e+00
   2.8823900e+00   1.2283300e+00
   2.8595000e+00   1.2286400e+00
   2.8823900e+00   1.2286400e+00
   2.8808600e+00   1.2286400e+00
   2.9022200e+00   1.2286400e+00
   2.9068000e+00   1.2283300e+00
   2.9113800e+00   1.2286400e+00
   2.8488200e+00   1.2286400e+00
   2.9068000e+00   1.2286400e+00
   2.8762800e+00   1.2286400e+00
   2.8091400e+00   1.2289400e+00
   2.8305100e+00   1.2289400e+00
   2.8427100e+00   1.2289400e+00
   2.8869600e+00   1.2289400e+00
   2.9205300e+00   1.2286400e+00
   2.8823900e+00   1.2286400e+00
   2.8961200e+00   1.2286400e+00
   2.8839100e+00   1.2289400e+00
   2.8991700e+00   1.2292500e+00
   2.9007000e+00   1.2295500e+00
   2.9129000e+00   1.2298600e+00
   2.8747600e+00   1.2298600e+00
   2.8701800e+00   1.2298600e+00
   2.8625500e+00   1.2301600e+00
   2.8747600e+00   1.2301600e+00
   2.8839100e+00   1.2304700e+00
   2.8823900e+00   1.2307700e+00
   2.8503400e+00   1.2304700e+00
   2.8396600e+00   1.2304700e+00
   2.8869600e+00   1.2304700e+00
   2.8823900e+00   1.2307700e+00
   2.8747600e+00   1.2307700e+00
   2.8457600e+00   1.2307700e+00
   2.8442400e+00   1.2307700e+00
   2.8778100e+00   1.2310800e+00
   2.8457600e+00   1.2310800e+00
   2.8976400e+00   1.2313800e+00
   2.8778100e+00   1.2313800e+00
   2.8808600e+00   1.2313800e+00
   2.8503400e+00   1.2313800e+00
   2.8396600e+00   1.2313800e+00
   2.8472900e+00   1.2310800e+00
   2.8869600e+00   1.2307700e+00
   2.8488200e+00   1.2304700e+00
   2.8442400e+00   1.2301600e+00
   2.8625500e+00   1.2298600e+00
   2.8427100e+00   1.2298600e+00
   2.8442400e+00   1.2295500e+00
   2.8427100e+00   1.2292500e+00
   2.8457600e+00   1.2289400e+00
   2.8595000e+00   1.2289400e+00
   2.9464700e+00   1.2286400e+00
   2.9388400e+00   1.2280300e+00
   2.8808600e+00   1.2277200e+00
   2.8503400e+00   1.2274200e+00
   2.8717000e+00   1.2271100e+00
   2.8579700e+00   1.2268100e+00
   2.8472900e+00   1.2265000e+00
   2.8625500e+00   1.2265000e+00
   2.8381300e+00   1.2262000e+00
   2.8854400e+00   1.2258900e+00
   2.8381300e+00   1.2255900e+00
   2.8320300e+00   1.2255900e+00
   2.8335600e+00   1.2252800e+00
   2.9113800e+00   1.2252800e+00
   2.8656000e+00   1.2249800e+00
   2.8808600e+00   1.2246700e+00
   2.8549200e+00   1.2243700e+00
   2.8793300e+00   1.2240600e+00
   2.9129000e+00   1.2237500e+00
   2.8793300e+00   1.2237500e+00
   2.8579700e+00   1.2234500e+00
   2.8549200e+00   1.2231400e+00
   2.8656000e+00   1.2231400e+00
   2.8595000e+00   1.2228400e+00
   2.8503400e+00   1.2222300e+00
   2.8640700e+00   1.2219200e+00
   2.8610200e+00   1.2216200e+00
   2.9007000e+00   1.2210100e+00
   2.8732300e+00   1.2207000e+00
   2.8717000e+00   1.2207000e+00
   2.8732300e+00   1.2207000e+00
   2.8884900e+00   1.2207000e+00
   2.9708900e+00   1.2207000e+00
   2.8961200e+00   1.2204000e+00
   2.9205300e+00   1.2200900e+00
   2.9342700e+00   1.2197900e+00
   2.9007000e+00   1.2194800e+00
   2.8793300e+00   1.2191800e+00
   2.9007000e+00   1.2188700e+00
   2.9388400e+00   1.2185700e+00
   2.9510500e+00   1.2182600e+00
   2.8686500e+00   1.2179600e+00
   2.9052700e+00   1.2176500e+00
   2.8839100e+00   1.2173500e+00
   2.9144300e+00   1.2170400e+00
   2.9296900e+00   1.2164300e+00
   2.9434200e+00   1.2161300e+00
   2.9602100e+00   1.2155200e+00
   2.9525800e+00   1.2152100e+00
   2.8762800e+00   1.2149000e+00
   2.9754600e+00   1.2146000e+00
   2.9373200e+00   1.2142900e+00
   2.9144300e+00   1.2139900e+00
   2.9617300e+00   1.2133800e+00
   2.9129000e+00   1.2130700e+00
   2.9373200e+00   1.2127700e+00
   2.8839100e+00   1.2124600e+00
   2.8961200e+00   1.2118500e+00
   2.8961200e+00   1.2118500e+00
   2.8884900e+00   1.2115500e+00
   2.8762800e+00   1.2115500e+00
   2.9052700e+00   1.2112400e+00
   2.9174800e+00   1.2112400e+00
   2.9846200e+00   1.2109400e+00
   2.9037500e+00   1.2109400e+00
   2.9037500e+00   1.2106300e+00
   2.9037500e+00   1.2106300e+00
   2.9037500e+00   1.2103300e+00
   2.9037500e+00   1.2103300e+00
   2.8167700e+00   1.2100200e+00
   2.7893100e+00   1.2094100e+00
   2.8549200e+00   1.2091100e+00
   2.8701800e+00   1.2088000e+00
   2.8472900e+00   1.2085000e+00
   2.8930700e+00   1.2081900e+00
   2.8854400e+00   1.2075800e+00
   2.8503400e+00   1.2072800e+00
   2.8869600e+00   1.2066700e+00
   2.8625500e+00   1.2060500e+00
   2.8640700e+00   1.2057500e+00
   2.8732300e+00   1.2054400e+00
   2.8839100e+00   1.2051400e+00
   2.8579700e+00   1.2048300e+00
   2.8533900e+00   1.2042200e+00
   2.8610200e+00   1.2036100e+00
   2.9052700e+00   1.2030000e+00
   2.8457600e+00   1.2023900e+00
   2.8778100e+00   1.2017800e+00
   2.8778100e+00   1.2011700e+00
   2.8366100e+00   1.2005600e+00
   2.8335600e+00   1.2002600e+00
   2.8152500e+00   1.1996500e+00
   2.7694700e+00   1.1993400e+00
   2.8427100e+00   1.1987300e+00
   2.8335600e+00   1.1984300e+00
   2.9312100e+00   1.1978100e+00
   2.9571500e+00   1.1972000e+00
   3.0105600e+00   1.1965900e+00
   3.0471800e+00   1.1962900e+00
   3.1539900e+00   1.1956800e+00
   3.2424900e+00   1.1950700e+00
   3.3615100e+00   1.1944600e+00
   3.4973100e+00   1.1938500e+00
   3.6026000e+00   1.1929300e+00
   3.7200900e+00   1.1923200e+00
   3.8223300e+00   1.1917100e+00
   3.7857100e+00   1.1914100e+00
   3.7094100e+00   1.1908000e+00
   3.7429800e+00   1.1901900e+00
   3.5293600e+00   1.1895800e+00
   3.4637500e+00   1.1889600e+00
   3.3294700e+00   1.1883500e+00
   3.2486000e+00   1.1883500e+00
   3.1219500e+00   1.1877400e+00
   3.0227700e+00   1.1871300e+00
   2.9159500e+00   1.1868300e+00
   2.8244000e+00   1.1862200e+00
   2.7893100e+00   1.1856100e+00
   2.6336700e+00   1.1846900e+00
   2.6657100e+00   1.1837800e+00
   2.6321400e+00   1.1831700e+00
   2.6794400e+00   1.1828600e+00
   2.7298000e+00   1.1822500e+00
   2.7206400e+00   1.1816400e+00
   2.7236900e+00   1.1813400e+00
   2.7694700e+00   1.1807300e+00
   2.7435300e+00   1.1801100e+00
   2.7679400e+00   1.1798100e+00
   2.7450600e+00   1.1792000e+00
   2.7587900e+00   1.1788900e+00
   2.8244000e+00   1.1785900e+00
   2.8320300e+00   1.1782800e+00
   2.7984600e+00   1.1776700e+00
   2.8579700e+00   1.1773700e+00
   2.8198200e+00   1.1767600e+00
   2.8839100e+00   1.1764500e+00
   2.8915400e+00   1.1758400e+00
   2.8793300e+00   1.1752300e+00
   2.8839100e+00   1.1752300e+00
   2.8778100e+00   1.1746200e+00
   2.8579700e+00   1.1740100e+00
   2.8945900e+00   1.1734000e+00
   2.8869600e+00   1.1727900e+00
   2.9007000e+00   1.1718800e+00
   2.8793300e+00   1.1712600e+00
   2.8747600e+00   1.1709600e+00
   2.8442400e+00   1.1700400e+00
   2.8610200e+00   1.1697400e+00
   2.8823900e+00   1.1694300e+00
   2.8930700e+00   1.1691300e+00
   2.9663100e+00   1.1688200e+00
   2.9464700e+00   1.1688200e+00
   2.9296900e+00   1.1685200e+00
   2.8701800e+00   1.1682100e+00
   2.8701800e+00   1.1682100e+00
   2.9205300e+00   1.1679100e+00
   2.8671300e+00   1.1676000e+00
   2.9449500e+00   1.1673000e+00
   2.8823900e+00   1.1666900e+00
   2.8854400e+00   1.1663800e+00
   2.9357900e+00   1.1657700e+00
   2.9159500e+00   1.1654700e+00
   2.9144300e+00   1.1648600e+00
   2.9022200e+00   1.1639400e+00
   2.9296900e+00   1.1630200e+00
   2.9205300e+00   1.1621100e+00
   2.9205300e+00   1.1608900e+00
   2.9296900e+00   1.1599700e+00
   2.9418900e+00   1.1587500e+00
   2.9327400e+00   1.1578400e+00
   2.9464700e+00   1.1569200e+00
   2.9205300e+00   1.1557000e+00
   2.9541000e+00   1.1547900e+00
   2.9220600e+00   1.1538700e+00
   2.9052700e+00   1.1532600e+00
   2.9876700e+00   1.1523400e+00
   2.9602100e+00   1.1511200e+00
   2.9769900e+00   1.1502100e+00
   2.9388400e+00   1.1492900e+00
   2.9785200e+00   1.1486800e+00
   2.9525800e+00   1.1480700e+00
   2.9418900e+00   1.1471600e+00
   2.9541000e+00   1.1465500e+00
   2.9220600e+00   1.1459400e+00
   2.9052700e+00   1.1453200e+00
   2.9144300e+00   1.1447100e+00
   2.9708900e+00   1.1444100e+00
   2.9724100e+00   1.1438000e+00
   3.0456500e+00   1.1434900e+00
   2.9800400e+00   1.1431900e+00
   2.9663100e+00   1.1425800e+00
   2.9739400e+00   1.1425800e+00
   2.9693600e+00   1.1425800e+00
   2.9663100e+00   1.1425800e+00
   2.9739400e+00   1.1425800e+00
   2.9800400e+00   1.1422700e+00
   3.0319200e+00   1.1419700e+00
   3.0044600e+00   1.1416600e+00
   3.0258200e+00   1.1413600e+00
   2.9830900e+00   1.1410500e+00
   3.0227700e+00   1.1404400e+00
   3.0395500e+00   1.1401400e+00
   3.1127900e+00   1.1398300e+00
   2.9983500e+00   1.1392200e+00
   3.0288700e+00   1.1389200e+00
   3.0044600e+00   1.1383100e+00
   2.9739400e+00   1.1377000e+00
   3.0075100e+00   1.1370800e+00
   3.0044600e+00   1.1361700e+00
   2.9602100e+00   1.1355600e+00
   3.0456500e+00   1.1349500e+00
   3.0410800e+00   1.1343400e+00
   3.0410800e+00   1.1340300e+00
   3.0319200e+00   1.1334200e+00
   3.0395500e+00   1.1328100e+00
   3.0700700e+00   1.1322000e+00
   3.0288700e+00   1.1312900e+00
   3.0334500e+00   1.1306800e+00
   3.0288700e+00   1.1297600e+00
   3.0090300e+00   1.1291500e+00
   3.0380200e+00   1.1282300e+00
   3.0624400e+00   1.1276200e+00
   3.0685400e+00   1.1267100e+00
   3.0120800e+00   1.1261000e+00
   3.0151400e+00   1.1251800e+00
   3.0334500e+00   1.1245700e+00
   3.0334500e+00   1.1236600e+00
   3.0273400e+00   1.1230500e+00
   3.0334500e+00   1.1221300e+00
   3.0242900e+00   1.1218300e+00
   3.0075100e+00   1.1212200e+00
   3.0334500e+00   1.1203000e+00
   3.0242900e+00   1.1193800e+00
   2.9693600e+00   1.1184700e+00
   2.9846200e+00   1.1178600e+00
   3.0426000e+00   1.1169400e+00
   3.0426000e+00   1.1160300e+00
   3.0197100e+00   1.1154200e+00
   2.9876700e+00   1.1148100e+00
   3.0029300e+00   1.1145000e+00
   3.0136100e+00   1.1135900e+00
   2.9815700e+00   1.1129800e+00
   3.0151400e+00   1.1120600e+00
   3.0044600e+00   1.1114500e+00
   2.9586800e+00   1.1111500e+00
   2.9617300e+00   1.1102300e+00
   2.9495200e+00   1.1096200e+00
   2.9296900e+00   1.1090100e+00
   2.9281600e+00   1.1080900e+00
   2.9525800e+00   1.1077900e+00
   2.9480000e+00   1.1071800e+00
   2.9403700e+00   1.1065700e+00
   2.9342700e+00   1.1059600e+00
   2.8976400e+00   1.1056500e+00
   2.8839100e+00   1.1050400e+00
   2.8686500e+00   1.1044300e+00
   2.9312100e+00   1.1038200e+00
   2.9418900e+00   1.1029100e+00
   2.9525800e+00   1.1026000e+00
   2.9174800e+00   1.1022900e+00
   2.9266400e+00   1.1022900e+00
   2.9220600e+00   1.1022900e+00
   2.9159500e+00   1.1022900e+00
   2.9281600e+00   1.1019900e+00
   2.9251100e+00   1.1016800e+00
   2.9113800e+00   1.1016800e+00
   2.8778100e+00   1.1013800e+00
   2.8961200e+00   1.1013800e+00
   2.9495200e+00   1.1010700e+00
   2.9342700e+00   1.1007700e+00
   2.9296900e+00   1.1007700e+00
   2.9480000e+00   1.1004600e+00
   2.8976400e+00   1.1004600e+00
   2.9190100e+00   1.1001600e+00
   2.9403700e+00   1.0995500e+00
   2.9266400e+00   1.0992400e+00
   2.9357900e+00   1.0989400e+00
   2.9800400e+00   1.0983300e+00
   2.9663100e+00   1.0977200e+00
   2.9571500e+00   1.0974100e+00
   2.9434200e+00   1.0968000e+00
   2.9342700e+00   1.0961900e+00
   2.9541000e+00   1.0955800e+00
   2.9464700e+00   1.0949700e+00
   2.9251100e+00   1.0940600e+00
   2.9495200e+00   1.0934400e+00
   2.9342700e+00   1.0928300e+00
   2.9754600e+00   1.0922200e+00
   2.9678300e+00   1.0916100e+00
   2.9159500e+00   1.0910000e+00
   2.9571500e+00   1.0900900e+00
   2.9861500e+00   1.0894800e+00
   2.9953000e+00   1.0885600e+00
   2.9647800e+00   1.0879500e+00
   2.9541000e+00   1.0873400e+00
   3.0075100e+00   1.0864300e+00
   2.9647800e+00   1.0858200e+00
   2.9571500e+00   1.0852100e+00
   2.9418900e+00   1.0842900e+00
   2.9251100e+00   1.0833700e+00
   2.9327400e+00   1.0827600e+00
   2.9480000e+00   1.0818500e+00
   2.9708900e+00   1.0809300e+00
   2.9373200e+00   1.0803200e+00
   2.9617300e+00   1.0797100e+00
   2.9846200e+00   1.0791000e+00
   2.9968300e+00   1.0781900e+00
   2.9678300e+00   1.0772700e+00
   2.9327400e+00   1.0766600e+00
   2.9480000e+00   1.0760500e+00
   2.9556300e+00   1.0754400e+00
   2.9281600e+00   1.0745200e+00
   2.9434200e+00   1.0739100e+00
   2.8900100e+00   1.0730000e+00
   2.9220600e+00   1.0723900e+00
   2.9159500e+00   1.0717800e+00
   2.9418900e+00   1.0711700e+00
   2.9785200e+00   1.0702500e+00
   2.9678300e+00   1.0696400e+00
   2.9495200e+00   1.0684200e+00
   2.9037500e+00   1.0675000e+00
   2.9434200e+00   1.0668900e+00
   2.9418900e+00   1.0656700e+00
   2.8930700e+00   1.0647600e+00
   2.9403700e+00   1.0635400e+00
   2.9861500e+00   1.0626200e+00
   2.9357900e+00   1.0614000e+00
   2.9159500e+00   1.0604900e+00
   2.9342700e+00   1.0595700e+00
   2.8915400e+00   1.0586500e+00
   2.9052700e+00   1.0577400e+00
   3.0105600e+00   1.0568200e+00
   2.9571500e+00   1.0556000e+00
   2.9174800e+00   1.0546900e+00
   2.9190100e+00   1.0537700e+00
   2.9602100e+00   1.0528600e+00
   2.8976400e+00   1.0522500e+00
   2.9129000e+00   1.0513300e+00
   2.9571500e+00   1.0507200e+00
   3.0029300e+00   1.0498000e+00
   2.9464700e+00   1.0491900e+00
   2.9235800e+00   1.0482800e+00
   2.9480000e+00   1.0473600e+00
   2.9312100e+00   1.0467500e+00
   2.9266400e+00   1.0458400e+00
   2.9205300e+00   1.0449200e+00
   2.9007000e+00   1.0440100e+00
   2.9449500e+00   1.0427900e+00
   2.9678300e+00   1.0421800e+00
   2.9434200e+00   1.0412600e+00
   2.9220600e+00   1.0403400e+00
   2.9083300e+00   1.0394300e+00
   2.9342700e+00   1.0385100e+00
   2.9129000e+00   1.0376000e+00
   2.9022200e+00   1.0366800e+00
   2.9373200e+00   1.0354600e+00
   2.9357900e+00   1.0348500e+00
   2.9403700e+00   1.0339400e+00
   2.9754600e+00   1.0333300e+00
   2.9403700e+00   1.0327100e+00
   2.9342700e+00   1.0321000e+00
   2.9266400e+00   1.0314900e+00
   2.9205300e+00   1.0311900e+00
   2.9434200e+00   1.0308800e+00
   2.9449500e+00   1.0305800e+00
   2.9357900e+00   1.0302700e+00
   2.9235800e+00   1.0299700e+00
   2.8976400e+00   1.0293600e+00
   2.8976400e+00   1.0290500e+00
   2.9556300e+00   1.0284400e+00
   2.9708900e+00   1.0278300e+00
   2.9785200e+00   1.0275300e+00
   2.9571500e+00   1.0266100e+00
   2.9373200e+00   1.0263100e+00
   2.9129000e+00   1.0253900e+00
   2.9556300e+00   1.0247800e+00
   2.9434200e+00   1.0241700e+00
   2.9861500e+00   1.0235600e+00
   2.9617300e+00   1.0229500e+00
   2.9815700e+00   1.0223400e+00
   2.9541000e+00   1.0217300e+00
   2.9876700e+00   1.0211200e+00
   3.0044600e+00   1.0205100e+00
   3.0136100e+00   1.0199000e+00
   3.0120800e+00   1.0192900e+00
   3.0410800e+00   1.0186800e+00
   2.9922500e+00   1.0177600e+00
   3.0090300e+00   1.0168500e+00
   2.9708900e+00   1.0159300e+00
   2.9815700e+00   1.0147100e+00
   3.0365000e+00   1.0141000e+00
   3.0166600e+00   1.0131800e+00
   3.1021100e+00   1.0125700e+00
   3.0319200e+00   1.0116600e+00
   3.0349700e+00   1.0110500e+00
   3.0822800e+00   1.0101300e+00
   3.0654900e+00   1.0095200e+00
   3.0502300e+00   1.0086100e+00
   3.0731200e+00   1.0073900e+00
   3.0456500e+00   1.0064700e+00
   3.0563400e+00   1.0055500e+00
   3.0532800e+00   1.0046400e+00
   3.0410800e+00   1.0040300e+00
   3.0426000e+00   1.0028100e+00
   3.0181900e+00   1.0015900e+00
   3.0227700e+00   1.0006700e+00
   3.0227700e+00   9.9975600e-01
   2.9846200e+00   9.9914600e-01
   2.9815700e+00   9.9792500e-01
   2.9632600e+00   9.9700900e-01
   2.9922500e+00   9.9578900e-01
   2.9983500e+00   9.9456800e-01
   2.9800400e+00   9.9365200e-01
   2.9708900e+00   9.9212600e-01
   2.9663100e+00   9.9090600e-01
   2.9739400e+00   9.8968500e-01
   2.9586800e+00   9.8846400e-01
   2.9617300e+00   9.8754900e-01
   2.9480000e+00   9.8632800e-01
   2.9052700e+00   9.8510700e-01
   2.8945900e+00   9.8388700e-01
   2.8442400e+00   9.8236100e-01
   2.9708900e+00   9.8144500e-01
   2.9480000e+00   9.7991900e-01
   2.9617300e+00   9.7869900e-01
   2.8991700e+00   9.7747800e-01
   2.9205300e+00   9.7625700e-01
   2.9159500e+00   9.7534200e-01
   2.9922500e+00   9.7442600e-01
   2.9312100e+00   9.7351100e-01
   2.9602100e+00   9.7259500e-01
   2.9327400e+00   9.7168000e-01
   2.9678300e+00   9.7106900e-01
   2.8854400e+00   9.7015400e-01
   2.9037500e+00   9.6923800e-01
   2.8991700e+00   9.6862800e-01
   2.8945900e+00   9.6771200e-01
   2.9220600e+00   9.6679700e-01
   2.9220600e+00   9.6588100e-01
   2.8976400e+00   9.6496600e-01
   2.8900100e+00   9.6374500e-01
   2.8976400e+00   9.6283000e-01
   2.9464700e+00   9.6160900e-01
   2.8976400e+00   9.6038800e-01
   2.9815700e+00   9.5916700e-01
   3.0685400e+00   9.5794700e-01
   3.1112700e+00   9.5703100e-01
   3.1585700e+00   9.5581100e-01
   3.2180800e+00   9.5489500e-01
   3.2806400e+00   9.5367400e-01
   3.3615100e+00   9.5245400e-01
   3.5568200e+00   9.5123300e-01
   3.7353500e+00   9.5001200e-01
   3.8085900e+00   9.4848600e-01
   3.9138800e+00   9.4696000e-01
   3.9520300e+00   9.4574000e-01
   3.8818400e+00   9.4421400e-01
   3.8803100e+00   9.4299300e-01
   3.7094100e+00   9.4146700e-01
   3.6453200e+00   9.4024700e-01
   3.4820600e+00   9.3933100e-01
   3.3157300e+00   9.3780500e-01
   3.1768800e+00   9.3658400e-01
   3.0639600e+00   9.3536400e-01
   2.9556300e+00   9.3444800e-01
   2.8915400e+00   9.3322800e-01
   2.8060900e+00   9.3200700e-01
   2.7298000e+00   9.3109100e-01
   2.6947000e+00   9.2987100e-01
   2.7236900e+00   9.2865000e-01
   2.7465800e+00   9.2742900e-01
   2.8152500e+00   9.2651400e-01
   2.8244000e+00   9.2529300e-01
   2.8137200e+00   9.2407200e-01
   2.7969400e+00   9.2315700e-01
   2.7984600e+00   9.2224100e-01
   2.8030400e+00   9.2132600e-01
   2.8442400e+00   9.2041000e-01
   2.8884900e+00   9.1918900e-01
   2.8762800e+00   9.1796900e-01
   2.8595000e+00   9.1705300e-01
   2.8823900e+00   9.1583300e-01
   2.9403700e+00   9.1461200e-01
   2.9083300e+00   9.1308600e-01
   2.8701800e+00   9.1156000e-01
   2.9235800e+00   9.1003400e-01
   2.9846200e+00   9.0789800e-01
   2.9281600e+00   9.0606700e-01
   2.9388400e+00   9.0393100e-01
   2.9434200e+00   9.0210000e-01
   2.9464700e+00   9.0026900e-01
   2.9678300e+00   8.9874300e-01
   2.9663100e+00   8.9721700e-01
   2.9464700e+00   8.9538600e-01
   2.9434200e+00   8.9386000e-01
   2.9495200e+00   8.9202900e-01
   2.8701800e+00   8.9050300e-01
   2.9418900e+00   8.8928200e-01
   2.9190100e+00   8.8806200e-01
   2.9754600e+00   8.8684100e-01
   2.9754600e+00   8.8562000e-01
   2.9678300e+00   8.8409400e-01
   2.9663100e+00   8.8256800e-01
   2.9403700e+00   8.8104200e-01
   2.9678300e+00   8.7921100e-01
   2.9708900e+00   8.7738000e-01
   2.9586800e+00   8.7554900e-01
   2.9541000e+00   8.7341300e-01
   2.9800400e+00   8.7158200e-01
   2.9586800e+00   8.6975100e-01
   2.9617300e+00   8.6761500e-01
   2.9602100e+00   8.6517300e-01
   2.9571500e+00   8.6273200e-01
   2.9693600e+00   8.6029100e-01
   2.9556300e+00   8.5784900e-01
   2.9647800e+00   8.5479700e-01
   2.9678300e+00   8.5174600e-01
   2.9785200e+00   8.4838900e-01
   3.0365000e+00   8.4472700e-01
   2.9678300e+00   8.4137000e-01
   2.9708900e+00   8.3801300e-01
   2.9968300e+00   8.3465600e-01
   2.9678300e+00   8.3160400e-01
   2.9968300e+00   8.2855200e-01
   2.9922500e+00   8.2580600e-01
   2.9983500e+00   8.2275400e-01
   2.9769900e+00   8.1939700e-01
   2.9937700e+00   8.1634500e-01
   2.9876700e+00   8.1329300e-01
   3.0395500e+00   8.0993700e-01
   3.0502300e+00   8.0658000e-01
   3.0197100e+00   8.0322300e-01
   3.0532800e+00   8.0017100e-01
   2.9846200e+00   7.9711900e-01
   3.0136100e+00   7.9437300e-01
   2.9754600e+00   7.9162600e-01
   2.9663100e+00   7.8918500e-01
   3.0654900e+00   7.8704800e-01
   3.0517600e+00   7.8521700e-01
   3.0227700e+00   7.8308100e-01
   3.0593900e+00   7.8125000e-01
   3.0456500e+00   7.7941900e-01
   3.0456500e+00   7.7728300e-01
   3.0151400e+00   7.7484100e-01
   3.0593900e+00   7.7301000e-01
   3.0502300e+00   7.7117900e-01
   3.0532800e+00   7.6934800e-01
   3.1066900e+00   7.6721200e-01
   3.1539900e+00   7.6507600e-01
   3.0807500e+00   7.6293900e-01
   3.0700700e+00   7.6049800e-01
   3.1478900e+00   7.5775100e-01
   3.1753500e+00   7.5470000e-01
   3.0761700e+00   7.5164800e-01
   3.1341600e+00   7.4859600e-01
   3.1478900e+00   7.4554400e-01
   3.1250000e+00   7.4279800e-01
   3.0960100e+00   7.4005100e-01
   3.0700700e+00   7.3730500e-01
   3.0975300e+00   7.3516800e-01
   3.0822800e+00   7.3303200e-01
   3.1127900e+00   7.3089600e-01
   3.1356800e+00   7.2906500e-01
   3.1082200e+00   7.2692900e-01
   3.1066900e+00   7.2479200e-01
   3.1997700e+00   7.2235100e-01
   3.1143200e+00   7.1960400e-01
   3.1143200e+00   7.1716300e-01
   3.1173700e+00   7.1502700e-01
   3.1402600e+00   7.1289100e-01
   3.1021100e+00   7.1106000e-01
   3.0838000e+00   7.0892300e-01
   3.1372100e+00   7.0678700e-01
   3.0761700e+00   7.0526100e-01
   3.1829800e+00   7.0343000e-01
   3.1295800e+00   7.0190400e-01
   3.1295800e+00   7.0068400e-01
   3.1158400e+00   6.9915800e-01
   3.1234700e+00   6.9732700e-01
   3.1250000e+00   6.9549600e-01
   3.1311000e+00   6.9305400e-01
   3.1204200e+00   6.9061300e-01
   3.1265300e+00   6.8817100e-01
   3.0929600e+00   6.8450900e-01
   3.0700700e+00   6.7962600e-01
   3.0883800e+00   6.7413300e-01
   3.0838000e+00   6.6833500e-01
   3.1372100e+00   6.6253700e-01
   3.1250000e+00   6.5673800e-01
   3.0700700e+00   6.5155000e-01
   3.1143200e+00   6.4636200e-01
   3.0654900e+00   6.4178500e-01
   3.0746500e+00   6.3751200e-01
   3.0914300e+00   6.3385000e-01
   2.9846200e+00   6.2988300e-01
   3.0059800e+00   6.2622100e-01
   2.9754600e+00   6.2255900e-01
   2.9785200e+00   6.1920200e-01
   3.0242900e+00   6.1584500e-01
   2.9968300e+00   6.1248800e-01
   3.0319200e+00   6.0943600e-01
   3.0624400e+00   6.0668900e-01
   3.0471800e+00   6.0424800e-01
   3.0059800e+00   6.0119600e-01
   2.9495200e+00   5.9845000e-01
   2.9998800e+00   5.9570300e-01
   2.9830900e+00   5.9265100e-01
   2.9876700e+00   5.8990500e-01
   3.0181900e+00   5.8746300e-01
   3.0151400e+00   5.8471700e-01
   2.9754600e+00   5.8227500e-01
   2.9846200e+00   5.7983400e-01
   2.9693600e+00   5.7739300e-01
   2.9586800e+00   5.7525600e-01
   2.9693600e+00   5.7312000e-01
   2.9296900e+00   5.7098400e-01
   2.9205300e+00   5.6884800e-01
   2.9861500e+00   5.6671100e-01
   2.9892000e+00   5.6457500e-01
   2.9418900e+00   5.6213400e-01
   2.9846200e+00   5.5969200e-01
   3.0090300e+00   5.5755600e-01
   2.9739400e+00   5.5511500e-01
   2.9663100e+00   5.5267300e-01
   2.9724100e+00   5.5053700e-01
   3.0090300e+00   5.4840100e-01
   2.9693600e+00   5.4626500e-01
   2.9403700e+00   5.4473900e-01
   3.0044600e+00   5.4290800e-01
   2.9830900e+00   5.4107700e-01
   2.9357900e+00   5.3924600e-01
   3.0059800e+00   5.3741500e-01
   2.9892000e+00   5.3558300e-01
   3.0014000e+00   5.3375200e-01
   2.9708900e+00   5.3192100e-01
   3.0090300e+00   5.3039600e-01
   3.0578600e+00   5.2887000e-01
   3.0014000e+00   5.2734400e-01
   3.0136100e+00   5.2551300e-01
   2.9708900e+00   5.2398700e-01
   2.9556300e+00   5.2215600e-01
   2.9525800e+00   5.2032500e-01
   2.9678300e+00   5.1849400e-01
   2.9754600e+00   5.1696800e-01
   3.0609100e+00   5.1513700e-01
   3.0456500e+00   5.1361100e-01
   3.0151400e+00   5.1239000e-01
   3.0120800e+00   5.1147500e-01
   2.9953000e+00   5.1055900e-01
   2.9724100e+00   5.0964400e-01
   2.9861500e+00   5.0872800e-01
   3.0181900e+00   5.0781300e-01
   2.9510500e+00   5.0659200e-01
   2.9815700e+00   5.0537100e-01
   3.0258200e+00   5.0415000e-01
   3.0334500e+00   5.0262500e-01
   2.9769900e+00   5.0109900e-01
   3.0304000e+00   4.9926800e-01
   3.0151400e+00   4.9774200e-01
   2.9678300e+00   4.9560500e-01
   2.9830900e+00   4.9346900e-01
   2.9693600e+00   4.9102800e-01
   3.0059800e+00   4.8858600e-01
   2.9769900e+00   4.8614500e-01
   2.9724100e+00   4.8370400e-01
   3.0197100e+00   4.8095700e-01
   2.9449500e+00   4.7790500e-01
   2.9800400e+00   4.7485400e-01
   2.9678300e+00   4.7180200e-01
   2.9586800e+00   4.6905500e-01
   2.9708900e+00   4.6600300e-01
   2.9953000e+00   4.6264600e-01
   2.9800400e+00   4.5929000e-01
   2.9937700e+00   4.5593300e-01
   2.9876700e+00   4.5227100e-01
   2.9830900e+00   4.4860800e-01
   2.9541000e+00   4.4494600e-01
   2.9815700e+00   4.4128400e-01
   2.9525800e+00   4.3792700e-01
   2.9937700e+00   4.3426500e-01
   2.9342700e+00   4.3090800e-01
   2.9846200e+00   4.2724600e-01
   2.9251100e+00   4.2388900e-01
   2.8991700e+00   4.1992200e-01
   2.9403700e+00   4.1564900e-01
   2.9754600e+00   4.1107200e-01
   2.9556300e+00   4.0649400e-01
   2.9434200e+00   4.0191700e-01
   2.9296900e+00   3.9733900e-01
   2.8793300e+00   3.9306600e-01
   2.8778100e+00   3.8879400e-01
   2.9296900e+00   3.8513200e-01
   2.9830900e+00   3.8116500e-01
   3.0014000e+00   3.7750200e-01
   3.0151400e+00   3.7445100e-01
   2.9586800e+00   3.7109400e-01
   2.9296900e+00   3.6773700e-01
   2.9693600e+00   3.6468500e-01
   2.9205300e+00   3.6193800e-01
   2.9159500e+00   3.5919200e-01
   2.9739400e+00   3.5675000e-01
   2.9830900e+00   3.5430900e-01
   2.9785200e+00   3.5186800e-01
   2.9434200e+00   3.4912100e-01
   2.9388400e+00   3.4637500e-01
   2.9754600e+00   3.4362800e-01
   2.9586800e+00   3.4057600e-01
   2.9403700e+00   3.3752400e-01
   2.9113800e+00   3.3447300e-01
   2.9495200e+00   3.3111600e-01
   2.9480000e+00   3.2806400e-01
   2.9541000e+00   3.2501200e-01
   2.9510500e+00   3.2165500e-01
   2.9281600e+00   3.1799300e-01
   2.9296900e+00   3.1463600e-01
   2.9129000e+00   3.1158400e-01
   2.9495200e+00   3.0853300e-01
   2.9113800e+00   3.0517600e-01
   2.9205300e+00   3.0242900e-01
   2.9800400e+00   2.9968300e-01
   2.9754600e+00   2.9693600e-01
   2.9815700e+00   2.9449500e-01
   2.9876700e+00   2.9205300e-01
   2.9846200e+00   2.8961200e-01
   2.9708900e+00   2.8747600e-01
   2.9388400e+00   2.8533900e-01
   2.9800400e+00   2.8289800e-01
   2.9525800e+00   2.8076200e-01
   2.9556300e+00   2.7862500e-01
   2.9480000e+00   2.7679400e-01
   2.9739400e+00   2.7465800e-01
   3.0014000e+00   2.7252200e-01
   3.0014000e+00   2.7008100e-01
   3.0059800e+00   2.6794400e-01
   2.9892000e+00   2.6550300e-01
   2.9876700e+00   2.6306200e-01
   2.9693600e+00   2.6092500e-01
   3.0059800e+00   2.5848400e-01
   3.0029300e+00   2.5604200e-01
   3.0136100e+00   2.5360100e-01
   3.0120800e+00   2.5085400e-01
   3.0304000e+00   2.4810800e-01
   3.0304000e+00   2.4536100e-01
   2.9602100e+00   2.4231000e-01
   3.0029300e+00   2.3925800e-01
   3.0151400e+00   2.3559600e-01
   3.0014000e+00   2.3193400e-01
   3.0624400e+00   2.2857700e-01
   3.1204200e+00   2.2552500e-01
   3.0685400e+00   2.2247300e-01
   3.0502300e+00   2.1972700e-01
   3.0563400e+00   2.1698000e-01
   3.0365000e+00   2.1453900e-01
   3.0090300e+00   2.1209700e-01
   3.0441300e+00   2.0965600e-01
   3.0548100e+00   2.0752000e-01
   3.0517600e+00   2.0507800e-01
   3.0380200e+00   2.0294200e-01
   3.0197100e+00   2.0080600e-01
   2.9678300e+00   1.9897500e-01
   2.9083300e+00   1.9653300e-01
   3.0349700e+00   1.9439700e-01
   2.9052700e+00   1.9195600e-01
   2.8945900e+00   1.8951400e-01
   2.9281600e+00   1.8707300e-01
   2.9174800e+00   1.8463100e-01
   2.9464700e+00   1.8249500e-01
   2.9144300e+00   1.8035900e-01
   2.9480000e+00   1.7822300e-01
   2.9174800e+00   1.7639200e-01
   2.9052700e+00   1.7425500e-01
   2.9144300e+00   1.7272900e-01
   2.9541000e+00   1.7089800e-01
   2.9052700e+00   1.6937300e-01
   2.8961200e+00   1.6784700e-01
   2.8869600e+00   1.6632100e-01
   2.9220600e+00   1.6510000e-01
   2.8961200e+00   1.6387900e-01
   2.9068000e+00   1.6265900e-01
   2.8869600e+00   1.6113300e-01
   2.8778100e+00   1.5960700e-01
   2.9296900e+00   1.5808100e-01
   2.8854400e+00   1.5594500e-01
   2.8900100e+00   1.5380900e-01
   2.9037500e+00   1.5167200e-01
   2.9205300e+00   1.4923100e-01
   2.8762800e+00   1.4679000e-01
   2.8732300e+00   1.4404300e-01
   2.9052700e+00   1.4099100e-01
   2.8869600e+00   1.3763400e-01
   2.8930700e+00   1.3336200e-01
   2.8610200e+00   1.2908900e-01
   2.8549200e+00   1.2451200e-01
   2.8549200e+00   1.1993400e-01
   2.8854400e+00   1.1535600e-01
   2.9785200e+00   1.1138900e-01
   3.0334500e+00   1.0772700e-01
   3.0548100e+00   1.0437000e-01
   3.0685400e+00   1.0101300e-01
   3.1845100e+00   9.7656300e-02
   3.2821700e+00   9.4909700e-02
   3.4912100e+00   9.2163100e-02
   3.6071800e+00   8.9416500e-02
   3.7536600e+00   8.6975100e-02
   3.9962800e+00   8.5144000e-02
   4.0664700e+00   8.3007800e-02
   4.0939300e+00   8.0871600e-02
   3.9382900e+00   7.9040500e-02
   3.9459200e+00   7.6904300e-02
   3.8238500e+00   7.4768100e-02
   3.7033100e+00   7.2326700e-02
   3.5614000e+00   6.9580100e-02
   3.3508300e+00   6.6528300e-02
   3.1066900e+00   6.3476600e-02
   3.0227700e+00   5.9814500e-02
   2.8839100e+00   5.5847200e-02
   2.7877800e+00   5.0964400e-02
   2.6962300e+00   4.5166000e-02
   2.6687600e+00   3.8757300e-02
   2.6825000e+00   3.2653800e-02
   2.6611300e+00   2.6550300e-02
   2.7206400e+00   2.0752000e-02
   2.7374300e+00   1.5258800e-02
   2.7450600e+00   1.0376000e-02
   2.7725200e+00   5.4931600e-03
   2.8213500e+00   1.2207000e-03
   2.7893100e+00  -2.7465800e-03
   2.8244000e+00  -6.7138700e-03
   2.8274500e+00  -1.0376000e-02
   2.8244000e+00  -1.3427700e-02
   2.9007000e+00  -1.6479500e-02
   2.8915400e+00  -1.9531300e-02
   2.8869600e+00  -2.2277800e-02
   2.8656000e+00  -2.5024400e-02
   2.8472900e+00  -2.8076200e-02
   2.8686500e+00  -3.0517600e-02
   2.8961200e+00  -3.2959000e-02
   2.8823900e+00  -3.5095200e-02
   2.8839100e+00  -3.7536600e-02
   2.8823900e+00  -3.9978000e-02
   2.8915400e+00  -4.2114300e-02
   2.8717000e+00  -4.4555700e-02
   2.8900100e+00  -4.6691900e-02
   2.8869600e+00  -4.8522900e-02
   2.9159500e+00  -5.0659200e-02
   2.9022200e+00  -5.2795400e-02
   2.8778100e+00  -5.4321300e-02
   2.9251100e+00  -5.5847200e-02
   2.8671300e+00  -5.7373000e-02
   2.8701800e+00  -5.8593800e-02
   2.8442400e+00  -6.0119600e-02
   2.9571500e+00  -6.1645500e-02
   2.9327400e+00  -6.3476600e-02
   2.8900100e+00  -6.5307600e-02
   2.9068000e+00  -6.6833500e-02
   2.9541000e+00  -6.8664600e-02
   2.9113800e+00  -7.0495600e-02
   2.9235800e+00  -7.2631800e-02
   2.9373200e+00  -7.4462900e-02
   2.9281600e+00  -7.6293900e-02
   2.9251100e+00  -7.8430200e-02
   2.9205300e+00  -8.0566400e-02
   2.9052700e+00  -8.3007800e-02
   2.9235800e+00  -8.5144000e-02
   2.9464700e+00  -8.6975100e-02
   2.9418900e+00  -8.8806200e-02
   2.8854400e+00  -9.0942400e-02
   2.8869600e+00  -9.2773400e-02
   2.9113800e+00  -9.4299300e-02
   2.9312100e+00  -9.6130400e-02
   2.9708900e+00  -9.7961400e-02
   2.9357900e+00  -9.9792500e-02
   2.9708900e+00  -1.0162400e-01
   2.9373200e+00  -1.0314900e-01
   2.9693600e+00  -1.0437000e-01
   2.9571500e+00  -1.0559100e-01
   2.9312100e+00  -1.0681200e-01
   2.9312100e+00  -1.0803200e-01
   2.9480000e+00  -1.0894800e-01
   2.9708900e+00  -1.0986300e-01
   2.9205300e+00  -1.1047400e-01
   2.9983500e+00  -1.1169400e-01
   2.9876700e+00  -1.1261000e-01
   2.9663100e+00  -1.1352500e-01
   2.9678300e+00  -1.1413600e-01
   3.0029300e+00  -1.1474600e-01
   2.9922500e+00  -1.1535600e-01
   2.9739400e+00  -1.1596700e-01
   2.9296900e+00  -1.1657700e-01
   2.9434200e+00  -1.1688200e-01
   3.0395500e+00  -1.1749300e-01
   2.9739400e+00  -1.1779800e-01
   3.0242900e+00  -1.1840800e-01
   3.0029300e+00  -1.1901900e-01
   2.9876700e+00  -1.1993400e-01
   3.0288700e+00  -1.2085000e-01
   2.9922500e+00  -1.2207000e-01
   3.0502300e+00  -1.2329100e-01
   3.0212400e+00  -1.2481700e-01
   3.0151400e+00  -1.2634300e-01
   2.9739400e+00  -1.2817400e-01
   2.9830900e+00  -1.3000500e-01
   3.0212400e+00  -1.3183600e-01
   3.0395500e+00  -1.3458300e-01
   3.1021100e+00  -1.3732900e-01
   3.0624400e+00  -1.4038100e-01
   3.0593900e+00  -1.4373800e-01
   3.0792200e+00  -1.4740000e-01
   3.0853300e+00  -1.5106200e-01
   3.0746500e+00  -1.5472400e-01
   3.1082200e+00  -1.5808100e-01
   3.0838000e+00  -1.6143800e-01
   3.0807500e+00  -1.6479500e-01
   3.0563400e+00  -1.6784700e-01
   3.0883800e+00  -1.7089800e-01
   3.1356800e+00  -1.7364500e-01
   3.0944800e+00  -1.7608600e-01
   3.0670200e+00  -1.7822300e-01
   3.1036400e+00  -1.8035900e-01
   3.0639600e+00  -1.8219000e-01
   3.0029300e+00  -1.8402100e-01
   3.0838000e+00  -1.8554700e-01
   3.0822800e+00  -1.8676800e-01
   3.0746500e+00  -1.8798800e-01
   3.0578600e+00  -1.8920900e-01
   3.0975300e+00  -1.9043000e-01
   3.1066900e+00  -1.9195600e-01
   3.1158400e+00  -1.9317600e-01
   3.0899000e+00  -1.9439700e-01
   3.0548100e+00  -1.9531300e-01
   3.0914300e+00  -1.9653300e-01
   3.1234700e+00  -1.9714400e-01
   3.0487100e+00  -1.9805900e-01
   3.0395500e+00  -1.9866900e-01
   3.0365000e+00  -1.9958500e-01
   3.0685400e+00  -2.0019500e-01
   3.0166600e+00  -2.0111100e-01
   3.0395500e+00  -2.0202600e-01
   3.0395500e+00  -2.0294200e-01
   3.1005900e+00  -2.0355200e-01
   3.0334500e+00  -2.0446800e-01
   3.0410800e+00  -2.0538300e-01
   3.0105600e+00  -2.0599400e-01
   2.9693600e+00  -2.0690900e-01
   2.9556300e+00  -2.0813000e-01
   2.9556300e+00  -2.0935100e-01
   2.9724100e+00  -2.1087600e-01
   2.9815700e+00  -2.1209700e-01
   2.9815700e+00  -2.1362300e-01
   2.9571500e+00  -2.1484400e-01
   2.9815700e+00  -2.1637000e-01
   2.9464700e+00  -2.1759000e-01
   2.9327400e+00  -2.1911600e-01
   2.9556300e+00  -2.2033700e-01
   2.9480000e+00  -2.2125200e-01
   2.9525800e+00  -2.2216800e-01
   2.8869600e+00  -2.2308300e-01
   2.9815700e+00  -2.2399900e-01
   2.9830900e+00  -2.2491500e-01
   2.9296900e+00  -2.2552500e-01
   2.9342700e+00  -2.2644000e-01
   2.9464700e+00  -2.2735600e-01
   2.9480000e+00  -2.2796600e-01
   2.8945900e+00  -2.2827100e-01
   2.9693600e+00  -2.2888200e-01
   2.9357900e+00  -2.2949200e-01
   2.9403700e+00  -2.3010300e-01
   2.9266400e+00  -2.3071300e-01
   2.9312100e+00  -2.3132300e-01
   2.9220600e+00  -2.3193400e-01
   2.9129000e+00  -2.3223900e-01
   2.9235800e+00  -2.3284900e-01
   2.9556300e+00  -2.3315400e-01
   2.9480000e+00  -2.3345900e-01
   2.9464700e+00  -2.3376500e-01
   2.9251100e+00  -2.3437500e-01
   2.9449500e+00  -2.3498500e-01
   2.9510500e+00  -2.3529100e-01
   2.9449500e+00  -2.3590100e-01
   2.9342700e+00  -2.3620600e-01
   2.9373200e+00  -2.3651100e-01
   2.9556300e+00  -2.3712200e-01
   2.9541000e+00  -2.3742700e-01
   2.9373200e+00  -2.3834200e-01
   2.9373200e+00  -2.3895300e-01
   2.9663100e+00  -2.3986800e-01
   2.9281600e+00  -2.4047900e-01
   2.9327400e+00  -2.4139400e-01
   2.9495200e+00  -2.4261500e-01
   2.9571500e+00  -2.4353000e-01
   2.9373200e+00  -2.4475100e-01
   2.9602100e+00  -2.4597200e-01
   2.9785200e+00  -2.4719200e-01
   2.9403700e+00  -2.4810800e-01
   2.9296900e+00  -2.4932900e-01
   3.0014000e+00  -2.5024400e-01
   2.9388400e+00  -2.5146500e-01
   2.9678300e+00  -2.5238000e-01
   2.9632600e+00  -2.5329600e-01
   2.9434200e+00  -2.5451700e-01
   2.9617300e+00  -2.5604200e-01
   2.9495200e+00  -2.5756800e-01
   2.9464700e+00  -2.5939900e-01
   2.9480000e+00  -2.6123000e-01
   2.8930700e+00  -2.6336700e-01
   3.0059800e+00  -2.6550300e-01
   2.9617300e+00  -2.6763900e-01
   2.9846200e+00  -2.7008100e-01
   3.0044600e+00  -2.7221700e-01
   2.9266400e+00  -2.7465800e-01
   2.8884900e+00  -2.7679400e-01
   2.9205300e+00  -2.7862500e-01
   2.9190100e+00  -2.8045700e-01
   2.9159500e+00  -2.8198200e-01
   2.9922500e+00  -2.8320300e-01
   2.9663100e+00  -2.8411900e-01
   2.9617300e+00  -2.8503400e-01
   2.9922500e+00  -2.8595000e-01
   2.9663100e+00  -2.8686500e-01
   2.9434200e+00  -2.8778100e-01
   2.9327400e+00  -2.8900100e-01
   2.9403700e+00  -2.9052700e-01
   2.9632600e+00  -2.9174800e-01
   2.9113800e+00  -2.9327400e-01
   2.9388400e+00  -2.9449500e-01
   2.9418900e+00  -2.9541000e-01
   2.9739400e+00  -2.9663100e-01
   2.9525800e+00  -2.9785200e-01
   2.9892000e+00  -2.9907200e-01
   2.9205300e+00  -2.9998800e-01
   2.9022200e+00  -3.0151400e-01
   2.9342700e+00  -3.0304000e-01
   2.9190100e+00  -3.0426000e-01
   2.9037500e+00  -3.0578600e-01
   2.9052700e+00  -3.0700700e-01
   2.9449500e+00  -3.0792200e-01
   2.9647800e+00  -3.0883800e-01
   2.9312100e+00  -3.1005900e-01
   2.9312100e+00  -3.1097400e-01
   2.9144300e+00  -3.1189000e-01
   2.9266400e+00  -3.1280500e-01
   2.8808600e+00  -3.1372100e-01
   3.0014000e+00  -3.1433100e-01
   2.9235800e+00  -3.1494100e-01
   2.9647800e+00  -3.1585700e-01
   2.9266400e+00  -3.1677200e-01
   2.9418900e+00  -3.1799300e-01
   2.9388400e+00  -3.1890900e-01
   2.9235800e+00  -3.1982400e-01
   2.9357900e+00  -3.2074000e-01
   2.9418900e+00  -3.2135000e-01
   2.9464700e+00  -3.2257100e-01
   2.9235800e+00  -3.2348600e-01
   2.8915400e+00  -3.2470700e-01
   2.9052700e+00  -3.2623300e-01
   2.9495200e+00  -3.2745400e-01
