 -2.3258021e+002
 -2.3718378e+002
 -2.3297249e+002
 -2.3394367e+002
 -2.3809079e+002
 -2.4040379e+002
 -2.3186950e+002
 -2.5347219e+002
 -3.0519407e+002
 -3.7801586e+002
 -3.9191742e+002
 -2.6987825e+002
 -4.8781051e+000
  4.1710250e+002
  9.6508185e+002
  1.4510766e+003
  1.5411014e+003
  1.2541687e+003
  7.5228847e+002
  2.9246832e+002
  3.9713161e+001
 -7.1974562e+001
 -1.0659478e+002
 -1.2914962e+002
 -1.6364319e+002
 -1.9208129e+002
 -2.1047112e+002
 -2.2382091e+002
 -2.3113963e+002
 -2.2443663e+002
 -2.1772131e+002
 -2.2000282e+002
 -2.1628978e+002
 -2.0359003e+002
 -1.8691046e+002
 -1.8325681e+002
 -1.7463360e+002
 -1.6504404e+002
 -1.5049002e+002
 -1.4897216e+002
 -1.4448985e+002
 -1.3704135e+002
 -1.1962395e+002
 -1.0723410e+002
 -9.6867619e+001
 -8.4519821e+001
 -6.7185752e+001
 -5.6860353e+001
 -4.6538637e+001
 -2.5215855e+001
 -2.8876328e+000
  7.4499034e+000
  1.6800033e+001
  3.6165369e+001
  5.6547818e+001
  6.3948562e+001
  6.4368068e+001
  6.9806121e+001
  9.5261881e+001
  1.1073395e+002
  1.1222047e+002
  1.2071920e+002
  1.2322766e+002
  1.1574317e+002
  9.9263043e+001
  8.8784617e+001
  7.8305383e+001
  5.7823056e+001
  2.3335653e+001
 -1.5845537e-001
 -1.0660501e+001
 -2.7171298e+001
 -5.0691229e+001
 -6.8220257e+001
 -7.7757943e+001
 -8.6303485e+001
 -9.5855760e+001
 -9.1413382e+001
 -8.4974760e+001
 -8.6538172e+001
 -8.6101826e+001
 -7.6663933e+001
 -7.1222772e+001
 -7.5776751e+001
 -7.9324466e+001
 -7.8864741e+001
 -7.5396676e+001
 -7.3919669e+001
 -8.1433438e+001
 -7.5938032e+001
 -6.3433821e+001
 -6.5921495e+001
 -7.6402035e+001
 -7.4876688e+001
 -6.3346935e+001
 -6.7814444e+001
 -8.4281030e+001
 -8.1748608e+001
 -8.0219141e+001
 -8.3694599e+001
 -8.9176907e+001
 -8.8667904e+001
 -8.8169308e+001
 -9.6682677e+001
 -1.0620939e+002
 -1.0675060e+002
 -1.0330728e+002
 -1.0788012e+002
 -1.1146962e+002
 -1.1107603e+002
 -1.0569941e+002
 -1.1433958e+002
 -1.2299621e+002
 -1.2066879e+002
 -1.1235671e+002
 -1.1605921e+002
 -1.1077548e+002
 -8.8504661e+001
 -5.4245859e+001
 -3.2998185e+001
 -1.7760776e+001
  1.7467193e+001
  5.3686486e+001
  7.1897801e+001
  7.8101759e+001
  8.2298901e+001
  9.8489687e+001
  9.9674503e+001
  9.2853665e+001
  9.6027428e+001
  9.5196001e+001
  3.9359552e+001
 -4.9481771e+001
 -1.1132783e+002
 -1.4517849e+002
 -1.6903359e+002
 -1.8089297e+002
 -1.7675642e+002
 -1.7362370e+002
 -1.7849455e+002
 -1.8536866e+002
 -1.8324569e+002
 -1.8512531e+002
 -2.1200713e+002
 -2.6989079e+002
 -3.3477594e+002
 -3.1066224e+002
 -1.4554940e+002
  1.4756282e+002
  5.9267461e+002
  1.1497861e+003
  1.5448972e+003
  1.5130080e+003
  1.1631183e+003
  6.4422786e+002
  2.4333638e+002
  4.0443487e+001
 -3.9451262e+001
 -6.5348340e+001
 -9.6248250e+001
 -1.3115150e+002
 -1.5105858e+002
 -1.5996995e+002
 -1.7088602e+002
 -1.8380711e+002
 -1.8473346e+002
 -1.7666520e+002
 -1.7160237e+002
 -1.7154487e+002
 -1.6049249e+002
 -1.4544492e+002
 -1.3840173e+002
 -1.4036241e+002
 -1.2732640e+002
 -1.1229307e+002
 -1.0526180e+002
 -1.0023196e+002
 -8.6202978e+001
 -7.1174339e+001
 -5.9145639e+001
 -5.1116600e+001
 -3.3087088e+001
 -1.0057143e+001
 -3.0269784e+000
  2.0030032e+000
  1.5032217e+001
  4.1059902e+001
  5.4085138e+001
  6.1106868e+001
  7.8123928e+001
  1.0013508e+002
  1.1613906e+002
  1.2413462e+002
  1.3312055e+002
  1.4209576e+002
  1.4705932e+002
  1.5301047e+002
  1.6594869e+002
  1.6987372e+002
  1.6078558e+002
  1.4968459e+002
  1.4057138e+002
  1.2644688e+002
  9.4312302e+001
  6.6169108e+001
  5.3019000e+001
  3.3863851e+001
  7.7056656e+000
 -1.5453483e+001
 -2.2611512e+001
 -2.4766398e+001
 -3.6916238e+001
 -5.1059314e+001
 -4.5194151e+001
 -3.6319571e+001
 -3.3434736e+001
 -3.2539183e+001
 -3.4632847e+001
 -3.2716070e+001
 -3.7789603e+001
 -3.8854585e+001
 -3.0912519e+001
 -2.3965232e+001
 -2.3014821e+001
 -3.2063593e+001
 -3.6114002e+001
 -3.1168570e+001
 -3.4229813e+001
 -4.3300169e+001
 -4.4381918e+001
 -4.0477122e+001
 -4.6587553e+001
 -5.2714653e+001
 -4.5859484e+001
 -5.0022707e+001
 -5.7204564e+001
 -6.1404881e+001
 -6.3623082e+001
 -6.7858217e+001
 -7.5109002e+001
 -8.0373875e+001
 -7.9651054e+001
 -7.9938609e+001
 -8.7234532e+001
 -9.3536815e+001
 -8.1843525e+001
 -8.2152872e+001
 -9.7463275e+001
 -1.0877342e+002
 -1.0608230e+002
 -9.7389244e+001
 -9.6693962e+001
 -9.8996515e+001
 -9.6297324e+001
 -9.2597144e+001
 -9.7897026e+001
 -1.0419827e+002
 -8.6502357e+001
 -5.1810903e+001
 -2.3125568e+001
 -4.4799456e-001
  1.7220269e+001
  4.9877835e+001
  7.9523539e+001
  8.8156492e+001
  1.0077612e+002
  1.1638221e+002
  1.2297489e+002
  1.2655466e+002
  1.2912238e+002
  1.3767920e+002
  1.0922657e+002
  3.6766142e+001
 -4.2700258e+001
 -9.3170732e+001
 -1.3164337e+002
 -1.5011634e+002
 -1.4858793e+002
 -1.5205667e+002
 -1.6152135e+002
 -1.6798110e+002
 -1.6843543e+002
 -1.6588421e+002
 -1.7932774e+002
 -2.2376673e+002
 -2.8620223e+002
 -3.0663563e+002
 -2.1306862e+002
  1.4496920e+001
  3.8205898e+002
  8.8361549e+002
  1.3931644e+003
  1.5807039e+003
  1.3812323e+003
  9.1674818e+002
  4.2125058e+002
  1.3173893e+002
  4.2131645e+000
 -4.4326311e+001
 -7.1878563e+001
 -1.0644216e+002
 -1.3301521e+002
 -1.4359539e+002
 -1.6418002e+002
 -1.7676618e+002
 -1.7335074e+002
 -1.6293050e+002
 -1.6350231e+002
 -1.6806316e+002
 -1.5561027e+002
 -1.4414124e+002
 -1.4265409e+002
 -1.4314735e+002
 -1.3262015e+002
 -1.1707222e+002
 -1.0850390e+002
 -9.6916185e+001
 -8.3310656e+001
 -7.1689445e+001
 -7.1055163e+001
 -6.6410815e+001
 -4.7759699e+001
 -2.6105289e+001
 -1.3451116e+001
 -6.8006443e+000
  1.2842852e+001
  2.9476404e+001
  4.0097457e+001
  4.2703960e+001
  6.2294440e+001
  8.6868054e+001
  9.5424624e+001
  1.0396464e+002
  1.1948923e+002
  1.3500015e+002
  1.3949968e+002
  1.3799056e+002
  1.5047588e+002
  1.5695897e+002
  1.4944327e+002
  1.3993217e+002
  1.3342894e+002
  1.2293654e+002
  9.8457543e+001
  6.8994014e+001
  5.1547428e+001
  3.4118608e+001
  1.0707682e+001
 -1.3685932e+001
 -2.6063512e+001
 -3.6427000e+001
 -4.6778937e+001
 -5.1122378e+001
 -4.8460796e+001
 -4.6797954e+001
 -5.1137782e+001
 -5.4484238e+001
 -4.8841169e+001
 -4.5212178e+001
 -4.6600499e+001
 -4.6008886e+001
 -4.3439514e+001
 -3.6893912e+001
 -3.9372909e+001
 -4.3876616e+001
 -3.9404424e+001
 -3.4955037e+001
 -4.1526528e+001
 -4.4116416e+001
 -3.6721768e+001
 -3.4339312e+001
 -4.4965567e+001
 -4.8596977e+001
 -4.9230050e+001
 -5.3861486e+001
 -6.6488311e+001
 -7.6107980e+001
 -7.2718480e+001
 -6.6318393e+001
 -7.6906952e+001
 -8.7484060e+001
 -8.7050285e+001
 -8.5606829e+001
 -9.3155471e+001
 -9.6698483e+001
 -9.9238530e+001
 -9.4778553e+001
 -1.0132164e+002
 -1.0687089e+002
 -1.0142926e+002
 -8.9999467e+001
 -9.8583829e+001
 -1.0818418e+002
 -9.3801751e+001
 -6.5437151e+001
 -4.0090283e+001
 -2.0760349e+001
  5.5413416e-001
  2.9855294e+001
  5.4145829e+001
  7.3428918e+001
  8.9708098e+001
  1.0398714e+002
  1.0326989e+002
  1.0656014e+002
  1.1786146e+002
  1.2617707e+002
  1.1350970e+002
  6.3861464e+001
 -1.8766220e+001
 -7.8372698e+001
 -1.2695813e+002
 -1.4852347e+002
 -1.4907051e+002
 -1.4560174e+002
 -1.5212034e+002
 -1.6063000e+002
 -1.6113488e+002
 -1.6163936e+002
 -1.6714797e+002
 -1.9666515e+002
 -2.4219513e+002
 -2.9574175e+002
 -2.7630830e+002
 -1.1789744e+002
  1.7148898e+002
  6.0084993e+002
  1.1281853e+003
  1.5094958e+003
  1.4997832e+003
  1.1720499e+003
  6.6129926e+002
  2.3253503e+002
  2.1761610e+001
 -5.8016301e+001
 -8.4793855e+001
 -9.5566221e+001
 -1.2232877e+002
 -1.4807723e+002
 -1.6680788e+002
 -1.8051764e+002
 -1.7720423e+002
 -1.6886623e+002
 -1.7350312e+002
 -1.7811532e+002
 -1.6770413e+002
 -1.6027171e+002
 -1.5982098e+002
 -1.5335546e+002
 -1.3787918e+002
 -1.2239644e+002
 -1.2291170e+002
 -1.2142934e+002
 -1.0295348e+002
 -8.4487832e+001
 -7.8035477e+001
 -7.2598770e+001
 -6.0179202e+001
 -4.1777327e+001
 -3.0392711e+001
 -2.2023929e+001
 -5.6685973e+000
  3.6765535e+000
  7.0155692e+000
  1.5353130e+001
  3.8694379e+001
  6.3044734e+001
  7.1409676e+001
  7.9794540e+001
  1.0020430e+002
  1.2064337e+002
  1.2411542e+002
  1.2262322e+002
  1.3016849e+002
  1.3875184e+002
  1.4037271e+002
  1.3902935e+002
  1.4471887e+002
  1.3043730e+002
  1.0017977e+002
  7.4940569e+001
  5.7713436e+001
  4.2491705e+001
  1.8268559e+001
 -5.9627333e+000
 -1.7208590e+001
 -2.7474883e+001
 -4.4766738e+001
 -5.3088352e+001
 -4.4442851e+001
 -3.9832182e+001
 -4.9257056e+001
 -5.5716936e+001
 -5.1210066e+001
 -4.0733559e+001
 -4.4283516e+001
 -5.1855198e+001
 -5.0443220e+001
 -4.5041774e+001
 -4.8644873e+001
 -4.4246599e+001
 -4.2841346e+001
 -3.4424058e+001
 -4.0990436e+001
 -5.2537125e+001
 -5.1061855e+001
 -4.6563540e+001
 -5.1042328e+001
 -5.4499600e+001
 -5.3937916e+001
 -5.3360909e+001
 -6.2773136e+001
 -7.0179879e+001
 -7.0586919e+001
 -7.3000282e+001
 -8.1425964e+001
 -8.7869657e+001
 -7.1336478e+001
 -4.8830715e+001
 -3.0355599e+001
 -1.2913120e+001
  4.9611904e-001
  2.2872991e+001
  4.0219874e+001
  5.2540624e+001
  6.6840483e+001
  7.8125931e+001
  8.4404477e+001
  8.6684410e+001
  8.6974509e+001
  8.3283712e+001
  6.9620790e+001
  3.6993993e+001
 -2.8589278e+001
 -8.4122783e+001
 -1.3160172e+002
 -1.6502297e+002
 -1.7338523e+002
 -1.7468917e+002
 -1.8293744e+002
 -1.8613465e+002
 -1.7828723e+002
 -1.7740328e+002
 -1.8649228e+002
 -1.9956482e+002
 -2.2063219e+002
 -2.7770602e+002
 -3.2479782e+002
 -2.5691858e+002
 -1.5078352e+001
  3.5071419e+002
  8.2845206e+002
  1.3161303e+003
  1.5257461e+003
  1.3492993e+003
  9.5379184e+002
  4.8522840e+002
  1.2361585e+002
 -6.6036795e+001
 -1.4871868e+002
 -1.6041750e+002
 -1.5611992e+002
 -1.6681206e+002
 -1.8848004e+002
 -2.0411044e+002
 -2.0569092e+002
 -2.0421065e+002
 -2.0166079e+002
 -1.9703492e+002
 -1.8832930e+002
 -1.8054312e+002
 -1.8167861e+002
 -1.8174106e+002
 -1.5973869e+002
 -1.4268245e+002
 -1.4458564e+002
 -1.4146352e+002
 -1.3133278e+002
 -1.2221091e+002
 -1.1811559e+002
 -1.1606402e+002
 -9.6072219e+001
 -7.8154371e+001
 -7.5322229e+001
 -7.1584562e+001
 -5.7946704e+001
 -4.0410216e+001
 -2.5972673e+001
 -1.2627591e+001
  1.1635499e+001
  2.5830829e+001
  3.3976024e+001
  5.6091598e+001
  8.3200318e+001
  9.8326475e+001
  1.0049506e+002
  9.4730876e+001
  9.8057664e+001
  1.0649717e+002
  1.0806830e+002
  1.0478630e+002
  1.0366209e+002
  1.0170167e+002
  8.0905699e+001
  4.9269230e+001
  3.5781674e+001
  2.5426911e+001
 -1.8163793e+000
 -2.8974195e+001
 -3.5076506e+001
 -3.6156379e+001
 -5.3248965e+001
 -6.6390366e+001
 -6.5616422e+001
 -6.1961455e+001
 -6.5457007e+001
 -6.7130613e+001
 -5.8004658e+001
 -4.8095340e+001
 -5.2411796e+001
 -5.6955419e+001
 -5.1719378e+001
 -4.3688389e+001
 -4.7838730e+001
 -5.5138525e+001
 -4.8548282e+001
 -4.7021683e+001
 -5.7506611e+001
 -6.0946392e+001
 -5.2281201e+001
 -5.0449628e+001
 -6.2390329e+001
 -7.7043736e+001
 -8.2353761e+001
 -7.5269464e+001
 -8.0746608e+001
 -8.8749084e+001
 -8.4250133e+001
 -8.0233344e+001
 -7.7693393e+001
 -5.9636486e+001
 -2.4080501e+001
  1.9451819e+000
  1.4400168e+001
  3.7233837e+001
  8.2386419e+001
  1.0679033e+002
  1.1237171e+002
  1.2005218e+002
  1.3975069e+002
  1.6038549e+002
  1.6287608e+002
  1.5514514e+002
  1.6012046e+002
  1.4573658e+002
  7.5936417e+001
  6.6725000e+000
 -3.4091920e+001
 -5.9382133e+001
 -8.1211519e+001
 -9.1581422e+001
 -8.6481345e+001
 -8.7889465e+001
 -1.0477344e+002
 -1.0809151e+002
 -8.9793774e+001
 -8.6823765e+001
 -1.1612008e+002
 -1.8261814e+002
 -2.3925207e+002
 -1.9095642e+002
 -3.6680071e+000
  3.1767250e+002
  7.7311906e+002
  1.3037189e+003
  1.6185117e+003
  1.5175284e+003
  1.1497910e+003
  6.7831198e+002
  2.5009474e+002
  9.1336000e+000
 -8.1585507e+001
 -9.5084228e+001
 -7.9390772e+001
 -8.5538710e+001
 -1.0556566e+002
 -1.2051186e+002
 -1.2641874e+002
 -1.2432750e+002
 -1.2827767e+002
 -1.3630588e+002
 -1.4144470e+002
 -1.2872163e+002
 -1.0915836e+002
 -9.6770181e+001
 -9.8565659e+001
 -9.4546545e+001
 -7.8707905e+001
 -6.6038491e+001
 -6.3521303e+001
 -6.5134341e+001
 -5.3851514e+001
 -3.9643655e+001
 -3.4479634e+001
 -2.6327500e+001
 -5.1556317e+000
  1.7066147e+001
  1.7365529e+001
  1.7766793e+001
  4.5290011e+001
  6.9950414e+001
  7.8757949e+001
  8.1717017e+001
  9.4826423e+001
  1.1907951e+002
  1.3546450e+002
  1.5596499e+002
  1.6956061e+002
  1.8422783e+002
  1.8394084e+002
  1.7967250e+002
  1.8339534e+002
  1.8908255e+002
  1.8070895e+002
  1.6825184e+002
  1.5669181e+002
  1.3301343e+002
  9.6205690e+001
  8.0262445e+001
  7.2182533e+001
  5.8969799e+001
  4.2632917e+001
  1.9185052e+001
 -3.5664467e-001
 -1.2971669e+001
 -2.2636912e+001
 -1.4327500e+001
 -5.0176860e+000
 -3.6817738e+000
 -1.1295033e+001
 -1.9834580e+001
 -1.9280189e+001
 -1.3615009e+001
 -1.4826172e+001
 -1.5905243e+001
 -9.8485391e+000
 -3.6572662e+000
 -7.3374988e+000
 -3.8999878e+000
  6.6401910e+000
  1.1264137e+001
  1.1949755e+001
  6.7250000e-001
 -1.0593796e+001
 -1.6876038e+001
 -2.1200949e+001
 -2.5941557e+000
  4.9206981e+000
  3.3227807e+000
 -4.0518601e-001
  1.3723707e+001
  4.6701063e+001
  7.0523535e+001
  8.3193035e+001
  1.0071677e+002
  1.3210713e+002
  1.4938139e+002
  1.4556130e+002
  1.4067250e+002
  1.5374384e+002
  1.6180660e+002
  1.5389362e+002
  1.4103840e+002
  1.3827417e+002
  1.1463300e+002
  4.0144864e+001
 -3.3163158e+001
 -8.4267614e+001
 -1.1214933e+002
 -1.3679392e+002
 -1.5419218e+002
 -1.5134028e+002
 -1.5123993e+002
 -1.5989822e+002
 -1.5332750e+002
 -1.4054497e+002
 -1.4157225e+002
 -1.7743477e+002
 -2.5116110e+002
 -3.1078224e+002
 -2.3633078e+002
  1.4159882e+001
  3.8165637e+002
  8.6312613e+002
  1.3905382e+003
  1.6708639e+003
  1.4950773e+003
  1.0661562e+003
  5.6608178e+002
  1.9783971e+002
