   2.4345768e+01
  -2.4458444e+02
  -2.8031701e+02
  -5.8181592e+00
   3.6638091e+01
  -2.3564587e+02
  -2.8403394e+02
  -1.2163648e+01
   3.9996448e+01
  -2.3557299e+02
  -2.8259359e+02
  -2.3928062e+00
   4.9465990e+01
  -2.2833951e+02
  -2.8298855e+02
  -4.5179526e+00
   4.9014225e+01
  -2.3399662e+02
  -2.9128647e+02
  -2.3621796e+01
   3.4544802e+01
  -2.3665121e+02
  -2.9960117e+02
  -3.3822789e+01
   2.2936740e+01
  -2.5142343e+02
  -3.1904843e+02
  -5.1230353e+01
   1.3088338e+01
  -2.5440485e+02
  -3.2470731e+02
  -5.5910418e+01
   7.9466929e+00
  -2.6363449e+02
  -3.3560218e+02
  -6.4873568e+01
   7.5134045e+00
  -2.4909911e+02
  -3.0470857e+02
  -9.0860495e+00
   9.1829057e+01
  -1.5375250e+02
  -1.9997540e+02
   9.6505914e+01
   1.9794772e+02
  -5.5541221e+01
  -1.3635031e+02
   1.3895212e+02
   2.2691493e+02
  -3.8424182e+01
  -1.2379611e+02
   1.3328527e+02
   1.6775808e+02
  -1.7837854e+02
  -3.3229319e+02
  -1.0947811e+02
  -3.9509576e+01
  -3.0739315e+02
  -4.0865467e+02
  -1.5788757e+02
  -5.6355816e+01
  -3.1203221e+02
  -4.1524142e+02
  -1.6352658e+02
  -5.4193197e+01
  -3.2913448e+02
  -4.8338774e+02
  -3.0357202e+02
  -2.1321472e+02
  -3.4310015e+02
  -1.8408149e+02
   4.8909904e+02
   1.1447775e+03
   1.3803088e+03
   1.3609218e+03
   1.3237045e+03
   9.3294352e+02
   2.2416784e+02
  -1.4140892e+02
  -4.9125590e+00
   7.4985858e+01
  -1.9497001e+02
  -3.4567390e+02
  -1.2750560e+02
  -2.7998856e+01
  -2.8714889e+02
  -4.1404492e+02
  -1.6235933e+02
  -3.4391547e+01
  -2.8082655e+02
  -4.0003545e+02
  -1.4402272e+02
  -2.7574837e+00
  -2.4156491e+02
  -3.5918528e+02
  -1.0799787e+02
   3.4451729e+01
  -2.0475373e+02
  -3.2981302e+02
  -8.2526990e+01
   6.6071983e+01
  -1.6047870e+02
  -2.8292763e+02
  -3.2547464e+01
   1.1922964e+02
  -1.0755803e+02
  -2.3330069e+02
   2.4204780e+01
   1.8421235e+02
  -4.0691374e+01
  -1.7062913e+02
   8.3025038e+01
   2.4429740e+02
   1.8372692e+01
  -1.2369315e+02
   1.1409606e+02
   2.8362595e+02
   6.7732010e+01
  -7.6437637e+01
   1.6243113e+02
   3.1217099e+02
   7.5323203e+01
  -8.9956667e+01
   1.2791073e+02
   2.6779263e+02
   1.9992622e+01
  -1.6641027e+02
   3.6374529e+01
   1.7933523e+02
  -6.2405125e+01
  -2.4092788e+02
  -3.4287235e+01
   1.1271074e+02
  -1.1893411e+02
  -2.8654757e+02
  -6.0086670e+01
   1.0593125e+02
  -1.1655950e+02
  -2.7721312e+02
  -4.7949389e+01
   1.2008487e+02
  -1.0318317e+02
  -2.7081950e+02
  -5.2767735e+01
   1.1627681e+02
  -9.8706045e+01
  -2.7327641e+02
  -5.2463445e+01
   1.2856966e+02
  -8.8083196e+01
  -2.6855706e+02
  -5.4028910e+01
   1.2895064e+02
  -8.7347325e+01
  -2.7671217e+02
  -6.3531538e+01
   1.1233656e+02
  -1.0059501e+02
  -2.8184817e+02
  -7.3084949e+01
   1.0460851e+02
  -1.1094745e+02
  -2.9908475e+02
  -9.3804675e+01
   8.9656602e+01
  -1.1950659e+02
  -3.0451300e+02
  -1.0076956e+02
   8.7414445e+01
  -1.2332558e+02
  -3.1617151e+02
  -1.1300369e+02
   8.0871003e+01
  -1.2240305e+02
  -3.0404657e+02
  -8.3482376e+01
   1.3905957e+02
  -3.6698681e+01
  -2.1109151e+02
   1.9845727e+01
   2.4703349e+02
   7.0841340e+01
  -1.1525246e+02
   8.2033239e+01
   2.9184209e+02
   1.0126228e+02
  -1.0048788e+02
   9.3117620e+01
   2.8851765e+02
   4.3591260e+01
  -2.4277449e+02
  -1.1688124e+02
   4.8076254e+01
  -1.6215874e+02
  -3.7410071e+02
  -1.8495239e+02
   1.9527993e+01
  -1.6897784e+02
  -3.7845528e+02
  -1.9408269e+02
   7.8872074e+00
  -1.9985034e+02
  -4.6282018e+02
  -3.4825195e+02
  -1.1782500e+02
  -1.3075480e+02
  -4.5173262e+01
   5.7656212e+02
   1.3424120e+03
   1.5623268e+03
   1.3205013e+03
   1.1443723e+03
   8.3660641e+02
   2.6339779e+02
  -1.5179788e+02
  -6.0827187e+01
   1.2674686e+02
  -7.3558811e+01
  -3.2309156e+02
  -1.7506047e+02
   3.1805986e+01
  -1.4557280e+02
  -3.7540996e+02
  -2.1135683e+02
   1.4755603e+01
  -1.4367010e+02
  -3.6277468e+02
  -1.8973236e+02
   4.5584950e+01
  -1.0785563e+02
  -3.3118341e+02
  -1.5917730e+02
   7.8310140e+01
  -7.2107590e+01
  -2.9060847e+02
  -1.2065895e+02
   1.1896656e+02
  -2.3389518e+01
  -2.4101301e+02
  -7.0141688e+01
   1.7958589e+02
   3.5324368e+01
  -1.8737779e+02
  -2.4614082e+01
   2.3016960e+02
   9.5024537e+01
  -1.2772290e+02
   3.5893344e+01
   2.8867608e+02
   1.5965885e+02
  -6.4108799e+01
   8.8313580e+01
   3.3003280e+02
   1.9315137e+02
  -3.4611398e+01
   1.1857371e+02
   3.5717165e+02
   2.0944127e+02
  -3.7280637e+01
   9.0637257e+01
   3.1307067e+02
   1.4552253e+02
  -1.2010451e+02
   5.3506905e-01
   2.1977859e+02
   6.1460849e+01
  -2.0100066e+02
  -7.7635435e+01
   1.6040453e+02
   1.9373852e+01
  -2.3584534e+02
  -1.0274778e+02
   1.4807292e+02
   2.5379732e+01
  -2.1652951e+02
  -9.4705409e+01
   1.5086349e+02
   2.3538244e+01
  -2.2201479e+02
  -9.3492784e+01
   1.5876706e+02
   4.0814936e+01
  -2.1435943e+02
  -1.0119027e+02
   1.5068229e+02
   3.2089916e+01
  -2.2469755e+02
  -1.1194201e+02
   1.4045829e+02
   2.2209744e+01
  -2.3317964e+02
  -1.1589077e+02
   1.2996342e+02
   1.4057435e+01
  -2.4090373e+02
  -1.3611246e+02
   1.1114496e+02
  -1.3956279e+00
  -2.5887301e+02
  -1.5458497e+02
   9.8048146e+01
  -1.1083569e+01
  -2.7100286e+02
  -1.5920797e+02
   9.4784171e+01
  -1.8888965e+01
  -2.8517319e+02
  -1.8586280e+02
   7.8464996e+01
  -1.5711001e+01
  -2.7429701e+02
  -1.7847896e+02
   8.2141405e+01
  -1.4520559e+01
  -2.7836671e+02
  -1.7106976e+02
   1.2177928e+02
   6.2628812e+01
  -1.7345180e+02
  -6.9717081e+01
   2.2228718e+02
   1.6763979e+02
  -8.3650326e+01
   1.1485079e+01
   2.8757847e+02
   2.1343654e+02
  -4.4023041e+01
   3.7494348e+01
   3.0763036e+02
   2.0201670e+02
  -1.3255054e+02
  -1.3664814e+02
   7.5503550e+01
  -3.6542118e+01
  -3.1814034e+02
  -2.4483810e+02
   1.5309184e+01
  -6.4126761e+01
  -3.3468099e+02
  -2.6696988e+02
   1.4191549e-01
  -7.9658028e+01
  -3.8911133e+02
  -3.8700254e+02
  -1.4198028e+02
  -1.1114243e+02
  -1.4946147e+02
   2.7901167e+02
   1.0468693e+03
   1.4973280e+03
   1.4181624e+03
   1.2759573e+03
   1.0785698e+03
   5.2763213e+02
  -2.9355319e+01
  -1.0326992e+02
   1.1603299e+02
   3.6701034e+01
  -2.6605901e+02
  -2.4268624e+02
   1.5271549e+01
  -5.3422686e+01
  -3.3487578e+02
  -2.8518920e+02
  -5.5856327e+00
  -5.0587953e+01
  -3.2463594e+02
  -2.6959524e+02
   1.1652129e+01
  -2.7603828e+01
  -2.9815403e+02
  -2.4873032e+02
   3.7140514e+01
   8.6607509e+00
  -2.5032777e+02
  -2.0152431e+02
   8.0913813e+01
   4.8201964e+01
  -2.1819861e+02
  -1.6805472e+02
   1.2485995e+02
   1.0787618e+02
  -1.5693627e+02
  -1.0951105e+02
   1.7877540e+02
   1.6347224e+02
  -1.0575142e+02
  -6.2095454e+01
   2.3447287e+02
   2.2082381e+02
  -4.2782723e+01
  -6.9133932e+00
   2.8088319e+02
   2.6689983e+02
  -7.0213434e+00
   2.2084168e+01
   3.0109295e+02
   2.7882055e+02
  -3.3171538e+00
   3.0721505e+00
   2.6529451e+02
   2.2978775e+02
  -7.2465940e+01
  -8.0750059e+01
   1.7467393e+02
   1.4396626e+02
  -1.5333006e+02
  -1.6027695e+02
   1.0229940e+02
   8.8383092e+01
  -1.8892456e+02
  -1.8456509e+02
   9.0073573e+01
   8.5902418e+01
  -1.9041871e+02
  -1.8681087e+02
   8.9778879e+01
   9.2292243e+01
  -1.8005022e+02
  -1.8324881e+02
   9.6191429e+01
   1.0134640e+02
  -1.7599974e+02
  -1.8102717e+02
   9.6199698e+01
   1.0099303e+02
  -1.7429663e+02
  -1.8013147e+02
   9.4860288e+01
   9.9327583e+01
  -1.7680993e+02
  -1.9439990e+02
   7.3358817e+01
   7.9551448e+01
  -2.0232969e+02
  -2.1962132e+02
   5.8898819e+01
   7.0852102e+01
  -2.1169092e+02
  -2.3565864e+02
   3.7583874e+01
   5.6295245e+01
  -2.1886727e+02
  -2.4952461e+02
   2.6362602e+01
   4.9792787e+01
  -2.2697875e+02
  -2.5336496e+02
   2.9069484e+01
   5.4166048e+01
  -2.2620865e+02
  -2.4735866e+02
   5.1537327e+01
   1.1426648e+02
  -1.3667936e+02
  -1.5459526e+02
   1.4471342e+02
   2.1008060e+02
  -4.0362956e+01
  -6.7004764e+01
   2.1670744e+02
   2.6075351e+02
  -5.0833130e+00
  -4.0385562e+01
   2.3673846e+02
   2.7251272e+02
  -4.5612688e+01
  -1.7851781e+02
   3.0009101e+01
   3.3534553e+01
  -2.5580785e+02
  -3.1029678e+02
  -3.9419800e+01
   9.8319884e+00
  -2.6570454e+02
  -3.2380569e+02
  -5.7677136e+01
  -3.7662845e+00
  -2.9951020e+02
  -4.0628005e+02
  -1.9401869e+02
  -1.1152781e+02
  -2.1849376e+02
   6.0206331e+00
   7.0031481e+02
   1.2943338e+03
   1.4111670e+03
   1.3329624e+03
   1.2692380e+03
   8.2878464e+02
   1.3649217e+02
  -1.4638050e+02
   3.6876830e+01
   8.3997113e+01
  -1.8930519e+02
  -2.9176071e+02
  -5.5496809e+01
   3.2571077e+00
  -2.7193519e+02
  -3.4789432e+02
  -7.8615833e+01
  -2.1959184e+00
  -2.6719435e+02
  -3.3962044e+02
  -7.2368215e+01
   1.2696397e+01
  -2.4007931e+02
  -3.1098956e+02
  -3.6856288e+01
   5.0783589e+01
  -2.0578179e+02
  -2.7722556e+02
  -1.3270204e+00
   9.6805238e+01
  -1.5456405e+02
  -2.3558038e+02
   3.8988591e+01
   1.4556073e+02
  -1.0158671e+02
  -1.8216608e+02
   8.2032474e+01
   1.8404883e+02
  -6.1792267e+01
  -1.3886639e+02
   1.3897600e+02
   2.4948965e+02
   5.0809522e+00
  -7.8386554e+01
   1.9413578e+02
   3.0320880e+02
   5.0355415e+01
  -4.9419047e+01
   2.0979166e+02
   3.2044600e+02
   6.9220843e+01
  -3.5831763e+01
   1.9901123e+02
   2.8119930e+02
   7.6044162e+00
  -1.2376653e+02
   1.0858693e+02
   2.0020047e+02
  -7.0813939e+01
  -1.9958394e+02
   3.6129271e+01
   1.3804353e+02
  -1.1544248e+02
  -2.2767948e+02
   2.1269007e+01
   1.3439738e+02
  -1.1556233e+02
  -2.3527371e+02
   1.7853238e+01
   1.4018073e+02
  -1.0918066e+02
  -2.3529945e+02
   1.1019674e+01
   1.3659470e+02
  -9.9041411e+01
  -2.2845559e+02
   1.9101556e+01
   1.4498981e+02
  -1.0479104e+02
  -2.3739941e+02
   4.4162292e+00
   1.3564381e+02
  -1.0420284e+02
  -2.4096392e+02
  -4.9365186e+00
   1.2458398e+02
  -1.1732315e+02
  -2.5826640e+02
  -2.7140327e+01
   1.0656710e+02
  -1.3244415e+02
  -2.5963433e+02
  -5.5437716e+00
   1.5823824e+02
  -5.4910491e+01
  -1.8838489e+02
   6.3578827e+01
   2.2937923e+02
   1.3128227e+01
  -1.2258836e+02
   1.1624305e+02
   2.7409396e+02
   4.9864358e+01
  -1.0296675e+02
   1.1880498e+02
   2.5980493e+02
   2.7731727e+00
  -2.1900742e+02
  -5.1204009e+01
   5.9041512e+01
  -1.9663816e+02
  -3.6424464e+02
  -1.4437904e+02
   8.1292262e+00
  -2.1513829e+02
  -3.6955222e+02
  -1.4970747e+02
   4.9620872e+00
  -2.2595150e+02
  -4.1226698e+02
  -2.5262971e+02
  -1.3299156e+02
  -2.8068335e+02
  -2.0704711e+02
   3.7316631e+02
   1.0205743e+03
   1.2949919e+03
   1.3334793e+03
   1.3691230e+03
   1.1461942e+03
   4.6672028e+02
  -6.8913083e+01
  -4.8845151e+01
   4.3927806e+01
  -1.7629186e+02
  -3.4887495e+02
  -1.5225572e+02
   4.3745261e+00
  -2.1734807e+02
  -3.9863600e+02
  -1.9229235e+02
  -8.6342120e+00
  -2.0763334e+02
  -3.8142835e+02
  -1.7126508e+02
   1.1483880e+01
  -1.8969829e+02
  -3.5295559e+02
  -1.3604640e+02
   4.8676636e+01
  -1.4677808e+02
  -3.2463140e+02
  -1.1821810e+02
   7.5210328e+01
  -1.1873490e+02
  -2.8941640e+02
  -7.6805541e+01
   1.1803118e+02
  -7.1611275e+01
  -2.5130029e+02
  -4.1705621e+01
   1.6737206e+02
  -1.0010128e+01
  -1.8169133e+02
   2.1891431e+01
   2.2727592e+02
   6.1352747e+01
  -1.1006360e+02
   9.1743821e+01
   2.9371397e+02
   1.0263473e+02
  -9.5107200e+01
   9.7272490e+01
   3.0117009e+02
   1.1533138e+02
  -8.9367591e+01
   8.9836691e+01
   2.7385425e+02
   6.2453558e+01
  -1.5707672e+02
   1.0923851e+01
   1.9094285e+02
  -1.3153080e+01
  -2.2772755e+02
  -5.3294808e+01
   1.3928489e+02
  -4.7935424e+01
  -2.5802409e+02
  -8.1732047e+01
   1.2681547e+02
  -4.6045295e+01
  -2.5013296e+02
  -7.0494398e+01
   1.3956334e+02
  -3.3243668e+01
  -2.4353238e+02
  -6.8711724e+01
   1.4380317e+02
  -2.8804776e+01
  -2.4001011e+02
  -7.4664614e+01
   1.3376620e+02
  -3.1995570e+01
  -2.4335605e+02
  -8.0706986e+01
   1.2847763e+02
  -4.5481256e+01
  -2.7300590e+02
  -1.0813559e+02
   1.0968080e+02
  -5.4580848e+01
  -2.7444390e+02
  -1.1570209e+02
   1.1225785e+02
  -2.2868884e+01
  -2.1378033e+02
  -3.6119554e+01
   2.0383972e+02
   7.6593928e+01
  -1.0678399e+02
   6.6136725e+01
   3.0126414e+02
   1.6199740e+02
  -4.8854927e+01
   1.1715062e+02
   3.5118606e+02
   1.9966764e+02
  -2.7885088e+01
   9.9928528e+01
   2.6362874e+02
   5.3763959e+01
  -2.2146224e+02
  -1.0775480e+02
   1.0582803e+02
  -4.1929813e+01
  -2.7318139e+02
  -1.3881770e+02
   8.1578366e+01
  -5.5889037e+01
  -2.7578863e+02
  -1.4029804e+02
   6.9509126e+01
  -1.2787457e+02
  -4.2450695e+02
  -2.4696673e+02
   1.8120388e+02
   3.7494694e+02
   5.8863880e+02
   1.2451830e+03
   1.8025917e+03
   1.5773230e+03
   9.6611987e+02
   6.1726148e+02
   4.3334842e+02
   7.1437155e+01
  -2.6441317e+02
  -1.5863793e+02
   1.0300232e+02
  -2.0737838e+01
  -2.8751565e+02
  -1.8655687e+02
   5.5079650e+01
  -5.7041432e+01
  -3.0931597e+02
  -2.0482986e+02
   3.9125045e+01
  -5.8962949e+01
  -2.8925111e+02
  -1.6776031e+02
   8.1041670e+01
  -2.2328297e+01
  -2.5782142e+02
  -1.3948149e+02
   1.1509002e+02
   9.5299675e+00
  -2.3195230e+02
  -1.1552579e+02
   1.4310228e+02
   5.0768905e+01
  -1.8221037e+02
  -6.1240928e+01
   1.9388482e+02
   9.7280876e+01
  -1.3068558e+02
  -1.0766959e+01
   2.5418160e+02
   1.6363391e+02
  -8.0037099e+01
   3.5966934e+01
   3.0975971e+02
   2.4026937e+02
  -4.1581439e+00
   9.8735595e+01
   3.5707501e+02
   2.6634860e+02
   1.0853843e+01
   1.0122664e+02
   3.5264970e+02
   2.5728345e+02
  -1.4640161e+01
   4.2810285e+01
   2.6692087e+02
   1.7163291e+02
  -9.7907869e+01
  -3.3563715e+01
   2.1209059e+02
   1.1287729e+02
  -1.6917367e+02
  -1.0781825e+02
   1.4553157e+02
   8.1668985e+01
  -1.7252976e+02
  -1.0082368e+02
   1.5555280e+02
   7.8448200e+01
  -1.8545598e+02
