   2.5390600e-01
   2.6184100e-01
   2.5848400e-01
   2.6886000e-01
   2.7221700e-01
   2.7160600e-01
   2.6031500e-01
   2.4932900e-01
   2.6397700e-01
   2.7557400e-01
   2.8106700e-01
   2.7984600e-01
   2.9052700e-01
   2.8900100e-01
   2.7862500e-01
   2.9632600e-01
   2.9907200e-01
   2.8930700e-01
   2.9449500e-01
   3.0273400e-01
   2.9632600e-01
   2.9754600e-01
   2.8350800e-01
   3.2012900e-01
   3.3935500e-01
   3.4210200e-01
   3.5858200e-01
   3.2684300e-01
   3.3447300e-01
   3.3294700e-01
   3.2501200e-01
   3.4393300e-01
   3.4973100e-01
   3.4881600e-01
   3.6987300e-01
   3.4118700e-01
   3.6224400e-01
   3.5339400e-01
   3.4881600e-01
   3.5430900e-01
   3.8299600e-01
   4.1290300e-01
   4.1351300e-01
   3.9215100e-01
   3.5644500e-01
   3.7109400e-01
   3.4454300e-01
   3.6102300e-01
   3.6438000e-01
   3.6041300e-01
   3.6804200e-01
   3.7597700e-01
   3.5491900e-01
   3.5400400e-01
   3.6865200e-01
   3.6621100e-01
   3.4851100e-01
   3.2562300e-01
   3.0853300e-01
   3.0090300e-01
   2.8808600e-01
   2.9785200e-01
   2.8106700e-01
   2.6702900e-01
   2.6031500e-01
   2.3529100e-01
   2.3162800e-01
   2.4719200e-01
   2.1789600e-01
   1.6540500e-01
   1.6784700e-01
   1.7913800e-01
   1.8859900e-01
   1.8554700e-01
   1.7791700e-01
   1.7059300e-01
   1.6754200e-01
   1.6784700e-01
   1.6540500e-01
   1.6662600e-01
   1.7425500e-01
   1.3427700e-01
   1.2878400e-01
   1.3732900e-01
   1.4831500e-01
   1.4923100e-01
   1.3336200e-01
   1.4862100e-01
   1.5411400e-01
   1.1810300e-01
   1.3855000e-01
   1.5197800e-01
   1.5350300e-01
   1.6662600e-01
   1.7913800e-01
   1.7272900e-01
   1.2695300e-01
   1.0864300e-01
   8.3313000e-02
   1.0101300e-01
   1.1688200e-01
   1.2756300e-01
   1.4679000e-01
   1.5716600e-01
   1.5930200e-01
   1.5716600e-01
   1.5045200e-01
   1.4526400e-01
   1.1596700e-01
   1.3763400e-01
   1.5808100e-01
   1.6754200e-01
   1.3946500e-01
   1.3610800e-01
   1.3671900e-01
   1.2970000e-01
   1.3458300e-01
   1.4343300e-01
   1.5930200e-01
   1.6174300e-01
   1.5747100e-01
   1.6693100e-01
   1.5045200e-01
   1.3458300e-01
   1.4465300e-01
   1.5075700e-01
   1.3793900e-01
   1.5197800e-01
   1.6571000e-01
   1.2146000e-01
   1.3061500e-01
   1.6296400e-01
   1.4648400e-01
   1.1596700e-01
   1.2329100e-01
   1.3183600e-01
   1.2481700e-01
   1.2817400e-01
   1.3244600e-01
   1.3488800e-01
   1.6174300e-01
   1.7120400e-01
   1.4312700e-01
   1.2329100e-01
   1.2512200e-01
   1.3824500e-01
   1.3397200e-01
   1.4099100e-01
   1.3122600e-01
   1.3488800e-01
   1.4038100e-01
   1.5533400e-01
   1.4007600e-01
   1.3885500e-01
   1.3519300e-01
   1.1505100e-01
   9.4299300e-02
   1.1108400e-01
   1.2725800e-01
   1.3702400e-01
   1.3305700e-01
   1.4709500e-01
   1.2603800e-01
   1.2603800e-01
   1.2298600e-01
   1.2146000e-01
   9.9792500e-02
   1.1779800e-01
   1.3885500e-01
   1.3305700e-01
   1.2237500e-01
   1.3244600e-01
   1.3092000e-01
   1.0925300e-01
   1.3183600e-01
   1.4434800e-01
   1.3824500e-01
   1.4099100e-01
   1.5777600e-01
   1.1810300e-01
   9.2773400e-02
   1.1596700e-01
   9.7961400e-02
   1.0223400e-01
   1.2146000e-01
   1.1291500e-01
   1.1261000e-01
   1.1596700e-01
   1.4160200e-01
   1.2451200e-01
   1.3244600e-01
   1.4038100e-01
   1.4160200e-01
   1.4953600e-01
   8.6975100e-02
   8.8806200e-02
   1.0437000e-01
   1.1322000e-01
   1.0803200e-01
   1.1444100e-01
   1.2695300e-01
   1.4068600e-01
   1.3397200e-01
   1.3366700e-01
   1.4617900e-01
   1.5045200e-01
   1.8768300e-01
   1.7150900e-01
   9.4299300e-02
   7.2326700e-02
   8.1787100e-02
   1.0772700e-01
   1.0620100e-01
   1.0223400e-01
   1.0864300e-01
   1.0833700e-01
   1.1871300e-01
   1.1688200e-01
   1.2603800e-01
   1.3488800e-01
   1.2939500e-01
   1.2085000e-01
   1.2725800e-01
   1.0467500e-01
   1.2329100e-01
   1.3275100e-01
   1.0925300e-01
   1.0528600e-01
   1.3061500e-01
   1.2603800e-01
   1.3122600e-01
   1.4251700e-01
   1.2725800e-01
   1.4068600e-01
   1.5655500e-01
   1.5014600e-01
   1.2847900e-01
   5.9509300e-02
   9.7961400e-02
   1.2329100e-01
   1.3366700e-01
   1.1383100e-01
   1.0711700e-01
   1.0070800e-01
   1.1871300e-01
   1.3488800e-01
   1.3275100e-01
   1.2847900e-01
   1.3977100e-01
   1.2603800e-01
   9.9182100e-02
   1.2573200e-01
   1.2939500e-01
   1.1810300e-01
   1.3183600e-01
   1.3824500e-01
   1.4099100e-01
   1.3305700e-01
   1.2970000e-01
   1.3366700e-01
   1.0650600e-01
   1.0192900e-01
   1.1596700e-01
   1.2359600e-01
   1.3732900e-01
   1.3122600e-01
   1.3275100e-01
   1.4648400e-01
   1.5716600e-01
   1.5167200e-01
   1.3946500e-01
   1.4282200e-01
   1.5838600e-01
   1.4892600e-01
   1.6845700e-01
   1.5930200e-01
   1.2634300e-01
   1.4282200e-01
   1.6418500e-01
   1.7364500e-01
   1.8615700e-01
   1.6174300e-01
   1.7578100e-01
   1.9348100e-01
   1.9165000e-01
   1.8005400e-01
   1.8463100e-01
   1.4587400e-01
   1.5167200e-01
   1.7242400e-01
   1.6418500e-01
   1.8310500e-01
   1.9958500e-01
   1.9439700e-01
   1.9622800e-01
   1.8981900e-01
   1.7272900e-01
   1.6204800e-01
   1.6662600e-01
   1.5350300e-01
   1.2542700e-01
   1.3275100e-01
   1.0925300e-01
   1.1444100e-01
   1.3366700e-01
   1.2207000e-01
   1.3183600e-01
   1.5350300e-01
   1.2970000e-01
   9.1552700e-02
   1.0040300e-01
   1.1352500e-01
   1.0376000e-01
   1.0986300e-01
   1.2908900e-01
   1.3305700e-01
   1.0955800e-01
   1.1261000e-01
   1.2176500e-01
   1.1535600e-01
   9.4604500e-02
   1.1810300e-01
   1.3519300e-01
   1.2542700e-01
   1.2817400e-01
   1.2268100e-01
   1.0986300e-01
   1.1474600e-01
   1.1535600e-01
   1.1810300e-01
   1.2451200e-01
   1.2970000e-01
   1.2573200e-01
   1.2634300e-01
   1.2481700e-01
   1.3488800e-01
   1.5869100e-01
   1.1413600e-01
   1.1077900e-01
   9.5825200e-02
   1.0192900e-01
   1.0314900e-01
   1.1627200e-01
   9.6130400e-02
   7.9956100e-02
   9.2773400e-02
   1.5014600e-01
   2.1087600e-01
   2.7130100e-01
   3.1005900e-01
   3.8238500e-01
   4.3579100e-01
   4.8339800e-01
   5.1757800e-01
   5.1452600e-01
   4.6478300e-01
   4.0374800e-01
   3.3660900e-01
   2.8472900e-01
   2.4993900e-01
   1.6693100e-01
   7.8430200e-02
  -4.7302200e-02
  -9.1552700e-02
  -6.5918000e-02
  -2.1362300e-03
  -6.1035200e-04
   2.0446800e-02
   6.9580100e-02
   6.7443800e-02
   6.7749000e-02
   1.0009800e-01
   1.3702400e-01
   1.7486600e-01
   1.7578100e-01
   1.5441900e-01
   1.5136700e-01
   1.6998300e-01
   1.7364500e-01
   1.7364500e-01
   1.8127400e-01
   1.7639200e-01
   1.8402100e-01
   1.8005400e-01
   1.7425500e-01
   2.0111100e-01
   2.0172100e-01
   1.8096900e-01
   2.0233200e-01
   1.8280000e-01
   1.4587400e-01
   1.5930200e-01
   2.0752000e-01
   1.9866900e-01
   1.9622800e-01
   2.0874000e-01
   1.9439700e-01
   2.1789600e-01
   2.1240200e-01
   1.8707300e-01
   1.9866900e-01
   2.3223900e-01
   1.8188500e-01
   1.5502900e-01
   1.7211900e-01
   1.7822300e-01
   1.7730700e-01
   1.9531300e-01
   2.1301300e-01
   2.1637000e-01
   2.0111100e-01
   2.0294200e-01
   2.1972700e-01
   2.3071300e-01
   2.2491500e-01
   2.1850600e-01
   2.1820100e-01
   2.1453900e-01
   2.2430400e-01
   2.1118200e-01
   1.9409200e-01
   2.3162800e-01
   2.7008100e-01
   2.8900100e-01
   2.7008100e-01
   2.5482200e-01
   2.4688700e-01
   2.1972700e-01
   2.2827100e-01
   2.4047900e-01
   2.4505600e-01
   2.5024400e-01
   2.6733400e-01
   2.6367200e-01
   2.6519800e-01
   2.4841300e-01
   2.4688700e-01
   2.6489300e-01
   2.7404800e-01
   3.0242900e-01
   3.0395500e-01
   2.7099600e-01
   2.5634800e-01
   2.7435300e-01
   2.8259300e-01
   2.8137200e-01
   2.8045700e-01
   3.0975300e-01
   3.3599900e-01
   3.1829800e-01
   3.1036400e-01
   3.3081100e-01
   3.1189000e-01
   3.0731200e-01
   3.2043500e-01
   3.0151400e-01
   3.0975300e-01
   3.1402600e-01
   3.4362800e-01
   3.5644500e-01
   3.3233600e-01
   3.5369900e-01
   3.5461400e-01
   3.7109400e-01
   3.9276100e-01
   3.7078900e-01
   3.4973100e-01
   3.5736100e-01
   3.7872300e-01
   3.7658700e-01
   3.6468500e-01
   3.6743200e-01
   3.8543700e-01
   3.8360600e-01
   3.9215100e-01
   3.6956800e-01
   3.8696300e-01
   3.9489700e-01
   4.1961700e-01
   3.9856000e-01
   4.0435800e-01
   4.0344200e-01
   4.0130600e-01
   3.8116500e-01
   3.8452100e-01
   4.0222200e-01
   4.1046100e-01
   4.2297400e-01
   4.3884300e-01
   4.3121300e-01
   4.3396000e-01
   4.5318600e-01
   3.7750200e-01
   3.6773700e-01
   3.7994400e-01
   3.4668000e-01
   3.2348600e-01
   3.2592800e-01
   3.2531700e-01
   3.1738300e-01
   3.1219500e-01
   3.2165500e-01
   3.1524700e-01
   2.8991700e-01
   2.8991700e-01
   2.6519800e-01
   2.3895300e-01
   2.2888200e-01
   2.4169900e-01
   2.1392800e-01
   1.8524200e-01
   2.1118200e-01
   2.2216800e-01
   2.0935100e-01
   2.1148700e-01
   1.9531300e-01
   1.9714400e-01
   2.1942100e-01
   1.9134500e-01
   1.3031000e-01
   1.4556900e-01
   1.6540500e-01
   1.6479500e-01
   1.6326900e-01
   1.8005400e-01
   1.7272900e-01
   1.6662600e-01
   1.8310500e-01
   1.8127400e-01
   1.7578100e-01
   1.6265900e-01
   1.6723600e-01
   2.0233200e-01
   2.2094700e-01
   1.8585200e-01
   1.8280000e-01
   1.6479500e-01
   1.5350300e-01
   1.4495800e-01
   1.4343300e-01
   1.5838600e-01
   1.6906700e-01
   1.5106200e-01
   1.6815200e-01
   1.7059300e-01
   1.7791700e-01
   1.8859900e-01
   1.7578100e-01
   1.9409200e-01
   1.7120400e-01
   1.5136700e-01
   1.6479500e-01
   1.7364500e-01
   1.7913800e-01
   1.8341100e-01
   1.9836400e-01
   1.8035900e-01
   1.7944300e-01
   1.8829300e-01
   1.5441900e-01
   1.6601600e-01
   1.7639200e-01
   1.6754200e-01
   1.7608600e-01
   1.9012500e-01
   1.9043000e-01
   1.6876200e-01
   1.6967800e-01
   1.8981900e-01
   1.7639200e-01
   1.8585200e-01
   2.2674600e-01
   1.8371600e-01
   1.6632100e-01
   1.7120400e-01
   1.4587400e-01
   1.5045200e-01
   1.5869100e-01
   1.6326900e-01
   1.6357400e-01
   1.6876200e-01
   1.7059300e-01
   1.8005400e-01
   1.7913800e-01
   1.9409200e-01
   1.9134500e-01
   1.5197800e-01
   1.5808100e-01
   1.5716600e-01
   1.4038100e-01
   1.4617900e-01
   1.8127400e-01
   1.6143800e-01
   1.5777600e-01
   1.5441900e-01
   1.5838600e-01
   1.6418500e-01
   1.8493700e-01
   1.8585200e-01
   1.7028800e-01
   1.7822300e-01
   1.6571000e-01
   1.5838600e-01
   1.6204800e-01
   1.7547600e-01
   1.7028800e-01
   1.5014600e-01
   1.4923100e-01
   1.7303500e-01
   1.4679000e-01
   1.3885500e-01
   1.4129600e-01
   1.5625000e-01
   1.6204800e-01
   1.6937300e-01
   1.4312700e-01
   1.1871300e-01
   1.4617900e-01
   1.7211900e-01
   1.7639200e-01
   1.6296400e-01
   1.6754200e-01
   1.7211900e-01
   1.6693100e-01
   1.6357400e-01
   1.5930200e-01
   1.5991200e-01
   1.7272900e-01
   1.4892600e-01
   1.3946500e-01
   1.6540500e-01
   1.4892600e-01
   1.5289300e-01
   1.6662600e-01
   1.6296400e-01
   1.7669700e-01
   1.4587400e-01
   1.5014600e-01
   1.6174300e-01
   1.2725800e-01
   1.3275100e-01
   1.6937300e-01
   1.8493700e-01
   1.5869100e-01
   1.4160200e-01
   1.4312700e-01
   1.4465300e-01
   1.5136700e-01
   1.6265900e-01
   1.6296400e-01
   1.5502900e-01
   1.6754200e-01
   1.4923100e-01
   1.4984100e-01
   1.5838600e-01
   1.6204800e-01
   1.5045200e-01
   1.3336200e-01
   1.4831500e-01
   1.7456100e-01
   1.7669700e-01
   1.7913800e-01
   1.5777600e-01
   1.3183600e-01
   1.3671900e-01
   1.3366700e-01
   1.5045200e-01
   1.5747100e-01
   1.5564000e-01
   1.6418500e-01
   1.6601600e-01
   1.5441900e-01
   1.3549800e-01
   1.5319800e-01
   1.7486600e-01
   1.7150900e-01
   1.5289300e-01
   1.7181400e-01
   1.8463100e-01
   1.4770500e-01
   1.2939500e-01
   1.4068600e-01
   1.5502900e-01
   1.7700200e-01
   1.7547600e-01
   1.7395000e-01
   1.7791700e-01
   1.7059300e-01
   1.4587400e-01
   1.5319800e-01
   1.5625000e-01
   1.7974900e-01
   1.8096900e-01
   1.9348100e-01
   1.7944300e-01
   1.7517100e-01
   1.4404300e-01
   1.2359600e-01
   1.7150900e-01
   2.1026600e-01
   2.2094700e-01
   2.0935100e-01
   2.0385700e-01
   1.9226100e-01
   2.0874000e-01
   2.0019500e-01
   1.8524200e-01
   2.0355200e-01
   2.1087600e-01
   2.0843500e-01
   2.1148700e-01
   2.2491500e-01
   2.0935100e-01
   2.1392800e-01
   1.8646200e-01
   1.9653300e-01
   1.7547600e-01
   2.0202600e-01
   1.9470200e-01
   1.8280000e-01
   1.4648400e-01
   1.4221200e-01
   1.4038100e-01
   1.4984100e-01
   1.5441900e-01
   1.2847900e-01
   1.3336200e-01
   1.3610800e-01
   1.4556900e-01
   1.4038100e-01
   1.1688200e-01
   1.5289300e-01
   1.5594500e-01
   1.4862100e-01
   1.3305700e-01
   1.1962900e-01
   1.3183600e-01
   1.3397200e-01
   1.4129600e-01
   1.4038100e-01
   1.3763400e-01
   1.3793900e-01
   1.5869100e-01
   1.6723600e-01
   1.6387900e-01
   1.6174300e-01
   1.3671900e-01
   1.3214100e-01
   1.5289300e-01
   1.2512200e-01
   1.0681200e-01
   1.1657700e-01
   1.2176500e-01
   1.3122600e-01
   1.4404300e-01
   1.4587400e-01
   1.2542700e-01
   1.3366700e-01
   1.4343300e-01
   1.1779800e-01
   1.4251700e-01
   1.3244600e-01
   1.3793900e-01
   1.3183600e-01
   1.0589600e-01
   1.1016800e-01
   1.4251700e-01
   1.8859900e-01
   2.5116000e-01
   3.1921400e-01
   3.8024900e-01
   4.6447800e-01
   5.3955100e-01
   5.7708700e-01
   5.3222700e-01
   4.4097900e-01
   3.9917000e-01
   3.4668000e-01
   3.1127900e-01
   2.8381300e-01
   2.3071300e-01
   1.4556900e-01
   5.3405800e-02
  -6.2255900e-02
  -7.7209500e-02
  -3.7231400e-02
   1.0070800e-02
   3.8757300e-02
   8.4228500e-02
   1.0467500e-01
   1.1444100e-01
   1.3824500e-01
   1.5625000e-01
   1.6571000e-01
   2.1026600e-01
   2.3712200e-01
   2.1453900e-01
   1.8280000e-01
   1.8554700e-01
   1.9836400e-01
   2.0385700e-01
   2.0599400e-01
   1.8707300e-01
   1.8524200e-01
   1.9897500e-01
   1.9439700e-01
   1.8096900e-01
   1.9378700e-01
   2.2247300e-01
   1.9989000e-01
   2.0782500e-01
   2.0019500e-01
   2.1637000e-01
   1.9531300e-01
   1.8341100e-01
   2.0233200e-01
   2.1148700e-01
   2.1331800e-01
   2.2583000e-01
   2.0202600e-01
   2.2308300e-01
   2.1484400e-01
   1.9622800e-01
   2.1301300e-01
   2.2247300e-01
   2.2460900e-01
   1.9561800e-01
   2.2216800e-01
   2.3345900e-01
   2.1759000e-01
   2.1667500e-01
   2.2735600e-01
   2.3895300e-01
   2.4963400e-01
   2.6428200e-01
   2.3956300e-01
   2.2247300e-01
   2.3620600e-01
   2.7343800e-01
   2.4871800e-01
   2.2460900e-01
   2.5207500e-01
   2.5939900e-01
   2.3681600e-01
   2.3681600e-01
   2.2003200e-01
   2.1881100e-01
   2.2827100e-01
   2.5299100e-01
   2.6428200e-01
   2.6489300e-01
   2.8015100e-01
   2.7008100e-01
   2.8381300e-01
   2.9083300e-01
   2.8167700e-01
   2.5512700e-01
   2.6031500e-01
   2.7618400e-01
   2.9022200e-01
   2.7648900e-01
   2.9480000e-01
   3.0334500e-01
   2.9907200e-01
   3.0120800e-01
   3.0548100e-01
   3.1585700e-01
   3.0212400e-01
   3.1158400e-01
   3.0487100e-01
   3.0731200e-01
   3.4606900e-01
   3.4515400e-01
   3.1280500e-01
   3.1494100e-01
   3.3111600e-01
   3.3996600e-01
   3.3660900e-01
   3.4179700e-01
   3.4668000e-01
   3.6254900e-01
   3.8421600e-01
   3.7292500e-01
   3.5797100e-01
   3.6926300e-01
   3.7719700e-01
   3.9001500e-01
   3.8879400e-01
   3.9459200e-01
   3.8604700e-01
   3.9276100e-01
   3.8818400e-01
   3.8970900e-01
   4.0374800e-01
   4.0283200e-01
   4.1259800e-01
   4.3335000e-01
   3.9794900e-01
   4.1290300e-01
   4.2572000e-01
   4.0405300e-01
   3.9428700e-01
   3.9611800e-01
   3.9886500e-01
   4.0069600e-01
   4.0832500e-01
   4.1809100e-01
   4.3212900e-01
   4.3335000e-01
   4.0588400e-01
   3.8574200e-01
   4.1076700e-01
   3.9642300e-01
   4.0313700e-01
   4.1076700e-01
   3.6987300e-01
   3.6285400e-01
   3.5888700e-01
   3.4332300e-01
   3.1738300e-01
   3.0883800e-01
   2.9937700e-01
   2.9602100e-01
   2.9571500e-01
   3.0395500e-01
   2.8076200e-01
   2.7191200e-01
   2.5451700e-01
   2.4963400e-01
   2.1331800e-01
   1.9714400e-01
   1.9165000e-01
   2.0019500e-01
   1.9531300e-01
   1.9561800e-01
   1.9653300e-01
   1.9073500e-01
   1.7486600e-01
   1.6876200e-01
   1.6479500e-01
   1.5441900e-01
   1.7547600e-01
   1.8432600e-01
   1.8096900e-01
   1.9012500e-01
   1.8310500e-01
   1.8310500e-01
   1.9653300e-01
   1.6723600e-01
   1.7608600e-01
   1.6326900e-01
   1.4343300e-01
   1.5228300e-01
   1.6174300e-01
   1.7608600e-01
   1.7181400e-01
   1.7364500e-01
   1.9287100e-01
   2.1087600e-01
   2.1453900e-01
   2.1942100e-01
   1.5930200e-01
   1.4740000e-01
   1.6937300e-01
   1.5228300e-01
   1.5838600e-01
   1.6052200e-01
   1.7517100e-01
   1.9500700e-01
   1.8432600e-01
   1.7608600e-01
   1.6845700e-01
   1.7150900e-01
   1.9165000e-01
   1.9073500e-01
   1.8371600e-01
   1.8493700e-01
   1.8066400e-01
   1.8737800e-01
   1.9989000e-01
   1.8402100e-01
   1.7517100e-01
   1.9836400e-01
   2.1026600e-01
   1.9348100e-01
   1.9256600e-01
   1.7913800e-01
   1.7456100e-01
   1.9470200e-01
   1.8341100e-01
   1.7334000e-01
   1.6723600e-01
   1.7364500e-01
   1.5930200e-01
   1.4495800e-01
   1.5838600e-01
   1.6052200e-01
   1.6204800e-01
   1.7059300e-01
   1.8615700e-01
   1.8341100e-01
   1.8371600e-01
   1.8066400e-01
   1.8127400e-01
   1.9226100e-01
   1.8035900e-01
   1.6815200e-01
   1.6845700e-01
   1.6326900e-01
   1.5106200e-01
   1.6937300e-01
   1.8798800e-01
   1.9012500e-01
   1.7974900e-01
   1.4556900e-01
   1.6876200e-01
   1.7700200e-01
   1.8096900e-01
   1.9744900e-01
   1.5533400e-01
   1.3885500e-01
   1.5899700e-01
   1.8219000e-01
   1.5960700e-01
   1.5502900e-01
   1.5991200e-01
   1.7669700e-01
   1.7272900e-01
   1.6540500e-01
   1.5167200e-01
   1.5136700e-01
   1.5533400e-01
   1.4282200e-01
   1.2939500e-01
   1.3580300e-01
   1.4404300e-01
   1.6326900e-01
   1.6693100e-01
   1.6601600e-01
   1.5777600e-01
   1.5075700e-01
   1.6449000e-01
   1.7791700e-01
   1.6845700e-01
   1.5716600e-01
   1.4801000e-01
   1.3763400e-01
   1.4526400e-01
   1.6754200e-01
   1.7425500e-01
   1.4587400e-01
   1.6143800e-01
   1.5686000e-01
   1.4129600e-01
   1.7334000e-01
   1.5991200e-01
   1.7181400e-01
   1.3458300e-01
   1.3000500e-01
   1.3977100e-01
   1.3855000e-01
   1.4221200e-01
   1.3824500e-01
   1.4312700e-01
   1.4282200e-01
   1.3793900e-01
   1.5411400e-01
   1.5411400e-01
   1.5106200e-01
   1.5533400e-01
   1.5686000e-01
   1.4373800e-01
   1.5533400e-01
   1.5319800e-01
   1.5350300e-01
   1.6174300e-01
   1.6845700e-01
   1.7974900e-01
   1.9348100e-01
   1.8127400e-01
   1.4007600e-01
   1.5564000e-01
   1.7272900e-01
   1.5014600e-01
   1.2664800e-01
   1.4373800e-01
   1.2756300e-01
   1.2847900e-01
   1.4251700e-01
   1.7242400e-01
   1.5625000e-01
   1.3305700e-01
   1.4495800e-01
   1.4099100e-01
   1.4862100e-01
   1.7028800e-01
   1.5594500e-01
   1.5106200e-01
   1.5686000e-01
   1.3000500e-01
   1.2512200e-01
   1.3916000e-01
   1.5777600e-01
   1.6571000e-01
   1.7425500e-01
   1.6540500e-01
   1.4709500e-01
   1.4282200e-01
   1.4831500e-01
   1.6906700e-01
   1.7181400e-01
   1.4526400e-01
   1.4434800e-01
   1.6296400e-01
   1.4862100e-01
   1.5960700e-01
   1.7913800e-01
   1.9073500e-01
   1.9958500e-01
   1.8341100e-01
   1.4556900e-01
   1.0589600e-01
   1.1596700e-01
   1.2908900e-01
   1.6265900e-01
   1.7791700e-01
   1.7272900e-01
   1.5899700e-01
   1.6479500e-01
   1.7700200e-01
   1.8432600e-01
   1.9622800e-01
   2.1301300e-01
   2.0538300e-01
   1.7944300e-01
   1.6601600e-01
   1.5441900e-01
   1.4312700e-01
   1.6998300e-01
   1.8524200e-01
   2.0477300e-01
   2.2583000e-01
   2.1392800e-01
   2.0660400e-01
   1.9134500e-01
   1.9805900e-01
   2.0202600e-01
   1.9989000e-01
   2.1179200e-01
   2.0294200e-01
   2.0263700e-01
   2.1087600e-01
   2.3437500e-01
   1.7913800e-01
   1.8432600e-01
   1.8920900e-01
   1.9104000e-01
   1.8402100e-01
   1.8035900e-01
   1.7730700e-01
   1.5411400e-01
   1.5075700e-01
   1.6052200e-01
   1.4312700e-01
   1.5167200e-01
   1.8707300e-01
   1.8219000e-01
   1.2908900e-01
   1.1932400e-01
   1.3366700e-01
   1.2939500e-01
   1.3000500e-01
   1.3855000e-01
   1.4587400e-01
   1.3946500e-01
   1.4495800e-01
   1.4312700e-01
   1.4221200e-01
   1.6571000e-01
   1.5991200e-01
   1.4190700e-01
   1.3946500e-01
   1.4099100e-01
   1.3641400e-01
   1.5258800e-01
   1.7578100e-01
   1.4587400e-01
   1.0162400e-01
   1.4404300e-01
   1.3183600e-01
   1.0589600e-01
   1.2847900e-01
   1.4434800e-01
   1.5655500e-01
   1.4801000e-01
   1.5441900e-01
   1.7639200e-01
   1.6296400e-01
   1.4343300e-01
   1.2847900e-01
   1.2115500e-01
   1.1871300e-01
   1.3153100e-01
   1.3275100e-01
   1.1474600e-01
   1.0253900e-01
   1.3580300e-01
   1.8920900e-01
   2.4627700e-01
   3.0487100e-01
   3.6529500e-01
   4.2236300e-01
   4.7302200e-01
   5.0598100e-01
   5.1269500e-01
   4.7546400e-01
   3.9978000e-01
   3.3813500e-01
   2.9052700e-01
   2.6763900e-01
   2.3712200e-01
   1.7242400e-01
   8.0566400e-02
  -9.1552700e-04
  -3.1433100e-02
   1.4648400e-02
   6.5918000e-02
   1.0345500e-01
   1.2939500e-01
   1.6693100e-01
   1.6937300e-01
   1.7486600e-01
   2.0019500e-01
   1.9989000e-01
   1.9928000e-01
   2.0965600e-01
   1.6967800e-01
   1.8249500e-01
   2.0813000e-01
   1.9653300e-01
   1.8615700e-01
   2.0477300e-01
   1.9104000e-01
   1.8371600e-01
   1.9409200e-01
   2.0141600e-01
   1.9805900e-01
   1.7608600e-01
   1.9561800e-01
   2.0935100e-01
   2.0294200e-01
   2.1392800e-01
   2.1423300e-01
   1.9134500e-01
   1.9409200e-01
   2.1881100e-01
   2.1148700e-01
   1.8188500e-01
   1.9653300e-01
   2.0874000e-01
   2.0904500e-01
   2.1942100e-01
   2.4108900e-01
   2.3132300e-01
   2.3590100e-01
   1.8951400e-01
   1.6021700e-01
   1.8158000e-01
   2.0233200e-01
   2.1667500e-01
   2.3223900e-01
   2.2644000e-01
   2.2705100e-01
   2.3162800e-01
   2.3925800e-01
   2.2003200e-01
   2.0477300e-01
   2.3437500e-01
   2.5390600e-01
   2.4719200e-01
   2.6428200e-01
   2.5817900e-01
   2.3223900e-01
   2.3315400e-01
   2.3712200e-01
   2.2033700e-01
   2.1301300e-01
   2.3162800e-01
   2.3193400e-01
   2.4963400e-01
   2.6428200e-01
   2.7435300e-01
   2.6062000e-01
   2.4932900e-01
   2.5299100e-01
   2.6367200e-01
   2.6672400e-01
   2.7038600e-01
   2.6550300e-01
   2.8747600e-01
   2.7771000e-01
   2.8137200e-01
   2.9541000e-01
   2.7984600e-01
   2.8991700e-01
   2.8595000e-01
   2.8350800e-01
   2.8503400e-01
   3.0639600e-01
   3.1402600e-01
   3.3325200e-01
   3.3660900e-01
   3.6438000e-01
   3.5400400e-01
   3.2959000e-01
   3.4332300e-01
   2.9052700e-01
   2.9571500e-01
   3.2775900e-01
   3.1005900e-01
   3.2074000e-01
   3.4271200e-01
   3.6254900e-01
   3.5553000e-01
   3.4942600e-01
   3.4851100e-01
   3.5888700e-01
   3.8513200e-01
   3.8574200e-01
   3.7323000e-01
   3.6468500e-01
   3.7323000e-01
   3.7445100e-01
   3.9154100e-01
   3.9367700e-01
   3.9367700e-01
   3.9032000e-01
   3.7323000e-01
   3.9001500e-01
   4.0557900e-01
   3.9611800e-01
   3.9672900e-01
   4.1595500e-01
   3.9886500e-01
   4.2694100e-01
   4.1656500e-01
   3.9093000e-01
   3.8604700e-01
   4.0496800e-01
   4.2358400e-01
   4.1961700e-01
   3.9947500e-01
   3.8787800e-01
   3.6102300e-01
   3.6834700e-01
   3.7170400e-01
   3.4881600e-01
   3.4942600e-01
   3.4942600e-01
   3.1860400e-01
   3.1951900e-01
   3.1036400e-01
   2.9480000e-01
   2.6214600e-01
   2.6336700e-01
   2.7801500e-01
   2.4475100e-01
   2.4932900e-01
   2.5207500e-01
   2.6092500e-01
   2.2705100e-01
   2.1789600e-01
   2.2583000e-01
   1.7700200e-01
   1.7761200e-01
   1.7334000e-01
   1.6449000e-01
   1.7700200e-01
   1.8859900e-01
   1.8646200e-01
   1.7578100e-01
   1.6662600e-01
   1.6601600e-01
   1.7669700e-01
   1.7089800e-01
   1.8219000e-01
   1.7730700e-01
   1.4831500e-01
   1.4892600e-01
   1.6601600e-01
   1.6296400e-01
   1.7730700e-01
   1.9409200e-01
   1.7089800e-01
   1.6540500e-01
   1.8005400e-01
   1.8341100e-01
   1.5380900e-01
   1.5838600e-01
   1.6571000e-01
   1.6662600e-01
   1.8493700e-01
   2.1759000e-01
   1.9958500e-01
   1.7059300e-01
   1.7242400e-01
   1.6235400e-01
   1.4160200e-01
   1.3977100e-01
   1.5533400e-01
   1.6021700e-01
   1.6723600e-01
   1.9165000e-01
   1.7242400e-01
   1.6174300e-01
   1.6937300e-01
   1.8249500e-01
   1.9592300e-01
   2.0263700e-01
   1.9256600e-01
   1.3366700e-01
   1.3458300e-01
   1.7059300e-01
   1.6937300e-01
   1.5869100e-01
   1.6387900e-01
   1.6601600e-01
   1.6326900e-01
   1.7303500e-01
   1.9561800e-01
   2.1118200e-01
   1.8890400e-01
   1.7089800e-01
   1.4709500e-01
   1.7944300e-01
   1.8585200e-01
   1.7547600e-01
   1.7242400e-01
   1.6693100e-01
   1.5625000e-01
   1.4587400e-01
   1.5777600e-01
   1.7700200e-01
   1.8005400e-01
   1.7181400e-01
   1.5930200e-01
   1.6723600e-01
   1.5991200e-01
   1.6601600e-01
   1.8432600e-01
   1.7822300e-01
   1.5899700e-01
   1.5594500e-01
   1.5625000e-01
   1.6204800e-01
   1.7120400e-01
   1.6510000e-01
   1.7456100e-01
   1.7517100e-01
   1.8280000e-01
   1.5502900e-01
   1.4831500e-01
   1.6113300e-01
   1.5533400e-01
   1.7089800e-01
   2.0385700e-01
   1.5350300e-01
   1.5228300e-01
   1.5136700e-01
   1.4434800e-01
   1.5106200e-01
   1.3275100e-01
   1.3793900e-01
   1.2573200e-01
   1.4190700e-01
   1.5533400e-01
   1.5594500e-01
   1.6449000e-01
   1.7242400e-01
   1.5930200e-01
   1.3183600e-01
   1.3610800e-01
   1.5991200e-01
   1.3610800e-01
   1.4068600e-01
   1.3214100e-01
   1.3092000e-01
   1.4221200e-01
   1.5564000e-01
   1.5716600e-01
   1.5319800e-01
   1.5136700e-01
   1.7395000e-01
   1.7944300e-01
   1.4312700e-01
   1.3305700e-01
   1.7456100e-01
   1.6662600e-01
   1.6571000e-01
   1.3397200e-01
   1.0772700e-01
   1.1169400e-01
   1.2756300e-01
   1.3610800e-01
   1.4343300e-01
   1.3977100e-01
   1.3519300e-01
   1.3549800e-01
   1.4495800e-01
   1.4831500e-01
   1.3610800e-01
   1.4038100e-01
   1.6326900e-01
   1.6998300e-01
   1.5930200e-01
   1.6021700e-01
   1.5411400e-01
   1.3427700e-01
   1.3824500e-01
   1.3031000e-01
   1.4556900e-01
   1.4282200e-01
   1.4984100e-01
   1.6052200e-01
   1.1322000e-01
   1.1535600e-01
   1.2176500e-01
   1.4465300e-01
   1.4129600e-01
   1.5747100e-01
   1.6662600e-01
   1.4404300e-01
   1.3855000e-01
   1.3397200e-01
   1.1566200e-01
   1.4648400e-01
   1.4068600e-01
   1.2603800e-01
   1.3397200e-01
   1.5258800e-01
   1.3824500e-01
   1.4221200e-01
   1.5258800e-01
   1.5380900e-01
   1.5106200e-01
   1.4160200e-01
   1.5625000e-01
   1.4953600e-01
   1.4282200e-01
   1.4526400e-01
   1.5411400e-01
   1.5869100e-01
   1.2207000e-01
   9.1857900e-02
   1.1535600e-01
   1.1657700e-01
   1.2512200e-01
   1.4099100e-01
   1.5472400e-01
   1.7700200e-01
   1.6143800e-01
   1.4587400e-01
   1.6204800e-01
   1.4526400e-01
   1.4740000e-01
   1.5899700e-01
   1.3519300e-01
   8.9111300e-02
   1.1596700e-01
   1.2817400e-01
   1.2268100e-01
   1.2146000e-01
   1.4160200e-01
   1.5014600e-01
   1.5472400e-01
   1.4343300e-01
   1.3458300e-01
   1.3946500e-01
   1.5655500e-01
   1.7181400e-01
   1.4404300e-01
   1.4709500e-01
   1.2817400e-01
   1.5777600e-01
   1.5350300e-01
   1.5197800e-01
   1.5075700e-01
   1.2970000e-01
   1.3427700e-01
   1.2420700e-01
   1.3549800e-01
   1.4556900e-01
   1.2878400e-01
   1.2970000e-01
   1.4465300e-01
   1.5930200e-01
   1.5411400e-01
   1.5319800e-01
   1.4923100e-01
   1.3458300e-01
   1.2939500e-01
   1.3855000e-01
   1.4373800e-01
   1.4373800e-01
   1.4099100e-01
   1.2817400e-01
   1.4648400e-01
   1.6174300e-01
   1.8371600e-01
   1.7425500e-01
   1.5197800e-01
   1.3916000e-01
   1.1779800e-01
   1.1749300e-01
   1.3916000e-01
   1.3061500e-01
   1.1840800e-01
   1.1566200e-01
   1.3855000e-01
   1.7028800e-01
   1.5899700e-01
   1.4648400e-01
   1.5289300e-01
   1.5716600e-01
   1.4587400e-01
   1.6815200e-01
   1.5075700e-01
   1.4892600e-01
   1.5045200e-01
   1.5319800e-01
   1.7059300e-01
   1.5716600e-01
   1.5808100e-01
   1.4434800e-01
   1.4801000e-01
   1.6662600e-01
   1.7578100e-01
   1.8280000e-01
   1.9012500e-01
   1.5319800e-01
   1.4312700e-01
   1.5594500e-01
   1.6479500e-01
   1.8920900e-01
   2.0141600e-01
   2.2247300e-01
   2.0385700e-01
   1.7730700e-01
   1.7211900e-01
   1.9073500e-01
   1.9775400e-01
   1.9714400e-01
   1.9897500e-01
   1.9561800e-01
   2.0080600e-01
   2.1575900e-01
   2.0538300e-01
   1.7395000e-01
   1.8585200e-01
   1.8585200e-01
   1.7791700e-01
   1.7456100e-01
   1.7883300e-01
   1.7364500e-01
   1.7547600e-01
   1.6540500e-01
   1.5655500e-01
   1.3305700e-01
   1.0314900e-01
   9.5520000e-02
   1.1077900e-01
   1.2664800e-01
   1.3366700e-01
   1.3793900e-01
   1.4312700e-01
   1.4892600e-01
   1.4221200e-01
   1.3763400e-01
   1.3519300e-01
   1.3214100e-01
   1.5106200e-01
   1.5716600e-01
   1.6204800e-01
   1.2603800e-01
   1.1474600e-01
   1.5869100e-01
   1.2420700e-01
   1.1108400e-01
   1.1108400e-01
   1.2298600e-01
   1.4679000e-01
   1.5319800e-01
   1.5258800e-01
   1.0803200e-01
   1.1535600e-01
   1.4709500e-01
   1.2359600e-01
   1.2878400e-01
   1.5136700e-01
   1.2573200e-01
   1.1352500e-01
   1.1505100e-01
   1.3427700e-01
   1.4251700e-01
   1.4801000e-01
   1.1749300e-01
   1.2481700e-01
   1.3061500e-01
   1.1657700e-01
   1.0803200e-01
   8.6059600e-02
   1.1322000e-01
   1.6632100e-01
   2.0843500e-01
   2.5848400e-01
   3.2318100e-01
   3.7292500e-01
   4.3792700e-01
   5.1086400e-01
   5.2642800e-01
   5.2459700e-01
   4.8797600e-01
   4.3304400e-01
   3.2989500e-01
   2.5817900e-01
   2.5146500e-01
   2.0233200e-01
   1.1688200e-01
   3.9062500e-02
  -2.7465800e-02
  -2.1362300e-02
   4.5471200e-02
   9.7045900e-02
   1.2756300e-01
   1.3641400e-01
   1.5319800e-01
   1.4526400e-01
   1.5380900e-01
   1.7944300e-01
   1.8951400e-01
   1.8554700e-01
   2.1575900e-01
   2.2186300e-01
   2.2522000e-01
   2.0172100e-01
   1.8585200e-01
   1.8188500e-01
   1.6235400e-01
   1.5258800e-01
   1.7211900e-01
   1.7211900e-01
   1.8493700e-01
   1.8280000e-01
   1.7517100e-01
   1.7272900e-01
   1.6174300e-01
   1.7181400e-01
   1.8920900e-01
   1.8035900e-01
   1.8463100e-01
   1.8890400e-01
   1.9683800e-01
   2.1820100e-01
   2.0721400e-01
   1.9866900e-01
   2.1179200e-01
   2.0935100e-01
   1.7272900e-01
   1.8920900e-01
   2.1179200e-01
   2.0141600e-01
   2.0416300e-01
   2.1240200e-01
   2.1911600e-01
   2.0965600e-01
   2.0477300e-01
   2.0843500e-01
   2.0813000e-01
   2.3254400e-01
   2.4383500e-01
   2.3559600e-01
   2.2247300e-01
   2.2369400e-01
   2.0263700e-01
   2.1301300e-01
   2.3925800e-01
   2.3712200e-01
   2.2888200e-01
   2.3834200e-01
   2.3956300e-01
   2.1667500e-01
   1.9714400e-01
   2.1423300e-01
   2.2888200e-01
   2.4078400e-01
   2.4993900e-01
   2.5817900e-01
   2.5543200e-01
   2.6702900e-01
   2.6580800e-01
   2.6794400e-01
   2.6702900e-01
   2.7343800e-01
   2.4871800e-01
   2.5054900e-01
   2.5787400e-01
   2.6611300e-01
   2.8564500e-01
   3.0120800e-01
   3.1982400e-01
   3.0792200e-01
   2.6245100e-01
   2.9876700e-01
   2.9510500e-01
   2.8167700e-01
   2.9296900e-01
   2.9022200e-01
   2.8839100e-01
   2.9632600e-01
   3.0059800e-01
   3.2348600e-01
   3.2409700e-01
   3.3508300e-01
   3.3325200e-01
   3.3935500e-01
   3.1311000e-01
   3.1707800e-01
   3.3935500e-01
   3.4729000e-01
   3.5858200e-01
   3.6468500e-01
   3.8208000e-01
   3.5369900e-01
   3.1189000e-01
   3.4515400e-01
   3.7780800e-01
   3.7231400e-01
   3.7475600e-01
   3.7506100e-01
   3.7567100e-01
   4.0527300e-01
   4.1290300e-01
   4.1259800e-01
   3.8970900e-01
   3.6041300e-01
   3.7811300e-01
   3.9550800e-01
   3.5919200e-01
   3.7597700e-01
   3.9550800e-01
   3.9276100e-01
   3.9184600e-01
   4.0466300e-01
   4.1748000e-01
   4.2572000e-01
   4.2388900e-01
   3.7902800e-01
   3.5400400e-01
   3.5369900e-01
   3.7078900e-01
   3.7689200e-01
   3.8299600e-01
   3.7048300e-01
   3.6132800e-01
   3.6377000e-01
   3.5369900e-01
   3.2501200e-01
   2.8595000e-01
   2.8320300e-01
   2.9449500e-01
   2.8625500e-01
   2.6306200e-01
   2.5970500e-01
   2.5665300e-01
   2.3681600e-01
   2.2430400e-01
   2.3193400e-01
   2.3590100e-01
   1.9683800e-01
   1.8035900e-01
   1.7578100e-01
   1.7791700e-01
   1.9165000e-01
   1.8524200e-01
   1.9409200e-01
   2.0416300e-01
   1.8005400e-01
   1.7822300e-01
   1.6937300e-01
   1.8341100e-01
   1.5472400e-01
   1.3610800e-01
   1.5686000e-01
   1.6418500e-01
   1.7700200e-01
   1.8524200e-01
   1.4373800e-01
   1.5106200e-01
   1.6571000e-01
   1.4801000e-01
   1.4953600e-01
   1.6632100e-01
   1.6510000e-01
   1.8341100e-01
   1.7944300e-01
   1.7303500e-01
   1.7089800e-01
   1.5197800e-01
   1.4404300e-01
   1.2847900e-01
   1.4740000e-01
   1.5655500e-01
   1.7028800e-01
   1.7608600e-01
   1.6937300e-01
   1.8005400e-01
   1.5838600e-01
   1.6326900e-01
   1.8493700e-01
   2.0294200e-01
   1.7272900e-01
   1.4617900e-01
   1.7425500e-01
   1.6326900e-01
   1.4343300e-01
   1.5106200e-01
   1.7303500e-01
   1.5472400e-01
   1.5197800e-01
   1.6387900e-01
   1.6998300e-01
   1.6510000e-01
   1.8646200e-01
   1.9256600e-01
   1.8463100e-01
   1.9012500e-01
   1.8554700e-01
   1.6906700e-01
   1.4709500e-01
   1.7334000e-01
   1.6693100e-01
   1.4679000e-01
   1.7364500e-01
   1.6052200e-01
   1.7334000e-01
   1.8188500e-01
   1.7303500e-01
   1.5625000e-01
   1.6510000e-01
   1.7608600e-01
   1.6876200e-01
   1.8158000e-01
   1.8585200e-01
   1.6204800e-01
   1.3855000e-01
   1.5564000e-01
   1.6845700e-01
   1.4312700e-01
   1.2756300e-01
   1.3519300e-01
   1.5136700e-01
   1.5777600e-01
   1.5930200e-01
   1.5228300e-01
   1.4495800e-01
   1.6754200e-01
   1.7730700e-01
   1.6754200e-01
   1.6052200e-01
   1.4617900e-01
   1.4068600e-01
   1.7944300e-01
   1.6845700e-01
   1.2695300e-01
   1.2420700e-01
   1.3855000e-01
   1.4495800e-01
   1.4099100e-01
   1.3946500e-01
   1.5136700e-01
   1.4312700e-01
   1.5564000e-01
   1.6906700e-01
   1.7913800e-01
   1.6906700e-01
   1.2695300e-01
   1.3244600e-01
   1.3763400e-01
   1.4160200e-01
   1.4190700e-01
   1.5258800e-01
   1.4160200e-01
   1.4160200e-01
   1.5472400e-01
   1.5655500e-01
   1.6693100e-01
   1.5655500e-01
   1.3549800e-01
   1.4160200e-01
   1.4007600e-01
   1.3580300e-01
   1.5380900e-01
   1.3458300e-01
   1.1230500e-01
   1.3000500e-01
   1.5533400e-01
   1.3153100e-01
   1.1444100e-01
   1.2786900e-01
   1.4404300e-01
   1.4862100e-01
   1.3702400e-01
   1.3824500e-01
   1.5136700e-01
   1.6571000e-01
   1.7639200e-01
   1.6540500e-01
   1.4617900e-01
   1.2908900e-01
   1.1688200e-01
   1.3031000e-01
   1.3336200e-01
   1.2573200e-01
   1.3275100e-01
   1.4984100e-01
   1.4617900e-01
   1.4038100e-01
   1.4221200e-01
   1.4709500e-01
   1.3031000e-01
   1.2725800e-01
   1.4068600e-01
   1.5686000e-01
   1.4099100e-01
   1.3244600e-01
   1.2725800e-01
   1.4373800e-01
   1.2359600e-01
   1.0376000e-01
   1.0467500e-01
   1.2207000e-01
   1.3580300e-01
   1.3458300e-01
   1.4892600e-01
   1.5441900e-01
   1.6479500e-01
   1.3427700e-01
   1.1291500e-01
   1.2970000e-01
   1.3397200e-01
   1.3244600e-01
   1.3610800e-01
   1.3793900e-01
   1.4740000e-01
   1.6418500e-01
   1.8188500e-01
   1.5380900e-01
   1.6143800e-01
   1.6540500e-01
   1.3031000e-01
   1.3214100e-01
   1.0162400e-01
   1.2115500e-01
   1.3916000e-01
   1.5716600e-01
   1.2756300e-01
   1.2481700e-01
   1.3366700e-01
   1.3458300e-01
   1.3793900e-01
   1.1627200e-01
   1.1474600e-01
   1.3031000e-01
   1.3977100e-01
   1.2695300e-01
   1.5075700e-01
   1.5106200e-01
   1.3702400e-01
   1.3916000e-01
   1.3885500e-01
   1.3885500e-01
   1.2268100e-01
   1.3336200e-01
   1.4587400e-01
   1.3366700e-01
   1.4526400e-01
   1.4740000e-01
   1.6052200e-01
   1.6326900e-01
   1.7364500e-01
   1.4923100e-01
   1.0498000e-01
   1.1688200e-01
   1.1779800e-01
   1.2695300e-01
   1.1138900e-01
   1.1230500e-01
   1.2329100e-01
   1.3244600e-01
   1.2390100e-01
   1.3183600e-01
   1.4434800e-01
   1.3671900e-01
   1.2451200e-01
   1.3580300e-01
   1.5319800e-01
   1.6571000e-01
   1.3214100e-01
   1.2603800e-01
   1.2695300e-01
   1.1718800e-01
   1.2451200e-01
   1.3305700e-01
   1.3183600e-01
   1.3885500e-01
   1.3824500e-01
   1.4648400e-01
   1.4648400e-01
   1.5289300e-01
   1.2695300e-01
   1.2359600e-01
   1.1383100e-01
   1.2512200e-01
   1.3031000e-01
   1.4495800e-01
   1.7700200e-01
   1.0925300e-01
   8.7890600e-02
   1.0742200e-01
   1.2634300e-01
   1.2939500e-01
   1.2420700e-01
   1.2329100e-01
   1.2146000e-01
   1.3519300e-01
   1.4007600e-01
   1.2939500e-01
   1.3214100e-01
   1.4984100e-01
   1.7272900e-01
   1.7120400e-01
   1.5045200e-01
   1.4251700e-01
   1.4129600e-01
   1.3092000e-01
   1.2512200e-01
   1.2634300e-01
   1.0101300e-01
   1.0131800e-01
   1.0955800e-01
   1.1230500e-01
   1.2115500e-01
   1.5289300e-01
   1.5899700e-01
   1.5014600e-01
   1.5716600e-01
   1.3793900e-01
   1.0162400e-01
   9.7351100e-02
   1.1383100e-01
   1.1291500e-01
   1.2390100e-01
   1.3824500e-01
   1.4129600e-01
   1.3214100e-01
   1.3855000e-01
   1.5411400e-01
   1.5136700e-01
   1.6998300e-01
   1.7120400e-01
   1.5167200e-01
   1.3031000e-01
   1.1505100e-01
   1.3763400e-01
   1.3427700e-01
   1.4892600e-01
   1.5777600e-01
   1.6357400e-01
   1.3916000e-01
   1.4556900e-01
   1.5045200e-01
   1.5350300e-01
   1.6693100e-01
   1.7852800e-01
   1.5533400e-01
   1.5228300e-01
   1.4801000e-01
   1.5136700e-01
   1.5472400e-01
   1.8158000e-01
   1.8554700e-01
   2.0385700e-01
   2.0233200e-01
   1.5533400e-01
   1.7852800e-01
   2.0416300e-01
   2.0538300e-01
   1.9104000e-01
   2.0233200e-01
   2.0019500e-01
   1.7639200e-01
   1.8829300e-01
   2.0233200e-01
   2.0477300e-01
   2.2338900e-01
   2.0233200e-01
   1.5625000e-01
   1.4892600e-01
   1.5472400e-01
   1.4190700e-01
   1.5167200e-01
   1.2725800e-01
   1.2268100e-01
   1.1749300e-01
   1.2542700e-01
   1.2268100e-01
   1.1688200e-01
   1.2603800e-01
   1.4312700e-01
   1.4099100e-01
   1.3305700e-01
   1.3061500e-01
   1.3000500e-01
   1.3855000e-01
   1.4953600e-01
   1.3427700e-01
   1.2664800e-01
   1.0955800e-01
   8.7280300e-02
   9.0637200e-02
   1.1779800e-01
   1.1810300e-01
   1.2176500e-01
   1.2664800e-01
   1.3214100e-01
   1.3336200e-01
   1.3427700e-01
   1.2817400e-01
   1.5136700e-01
   1.7852800e-01
   1.3855000e-01
   7.9040500e-02
   9.8266600e-02
   1.0955800e-01
   1.1901900e-01
   1.4068600e-01
   1.1505100e-01
   9.0026900e-02
   1.0528600e-01
   1.2908900e-01
   1.3824500e-01
   1.3641400e-01
   1.4373800e-01
   1.1657700e-01
   8.6975100e-02
   1.2573200e-01
   1.0253900e-01
   8.0261200e-02
   1.0498000e-01
   1.5289300e-01
   1.9439700e-01
   2.4383500e-01
   3.1524700e-01
   3.9001500e-01
   4.5532200e-01
   5.1513700e-01
   5.4992700e-01
   5.3802500e-01
   4.9194300e-01
   4.5990000e-01
   3.6651600e-01
   3.0304000e-01
   2.5360100e-01
   1.7211900e-01
   6.4392100e-02
  -2.9296900e-02
  -7.0190400e-02
  -4.5776400e-02
   1.5258800e-02
   8.0871600e-02
   1.1016800e-01
   1.2451200e-01
   1.2970000e-01
   1.6876200e-01
   1.8493700e-01
   2.0507800e-01
   2.0843500e-01
   1.6479500e-01
   1.4282200e-01
   1.5472400e-01
   1.5991200e-01
   1.6449000e-01
   1.8463100e-01
   1.8158000e-01
   1.7669700e-01
   1.9073500e-01
   1.9073500e-01
   1.9104000e-01
   1.7822300e-01
   1.8646200e-01
   2.0385700e-01
   1.9989000e-01
   1.6967800e-01
   1.6174300e-01
   1.8646200e-01
   1.9592300e-01
   1.9287100e-01
   1.7944300e-01
   1.8463100e-01
   2.1209700e-01
   2.2308300e-01
   2.0385700e-01
   1.8737800e-01
   1.6052200e-01
   1.7791700e-01
   2.2033700e-01
   2.4841300e-01
   2.2674600e-01
   2.1606400e-01
   2.0263700e-01
   1.9897500e-01
   1.8341100e-01
   1.8707300e-01
   2.1148700e-01
   2.3498500e-01
   2.2491500e-01
   2.1789600e-01
   2.0843500e-01
   2.1972700e-01
   2.4658200e-01
   2.3925800e-01
   2.1087600e-01
   2.0385700e-01
   2.0202600e-01
   2.1911600e-01
   2.3254400e-01
   2.3437500e-01
   2.3773200e-01
   2.3040800e-01
   2.5665300e-01
   2.6886000e-01
   2.6306200e-01
   2.7801500e-01
   2.3559600e-01
   2.2491500e-01
   2.3925800e-01
   2.5238000e-01
   2.6702900e-01
   2.7893100e-01
   2.5695800e-01
   2.8106700e-01
   2.8839100e-01
   2.8350800e-01
   2.9510500e-01
   2.6947000e-01
   2.8503400e-01
   2.8320300e-01
   2.4475100e-01
   2.4902300e-01
   2.7252200e-01
   2.8564500e-01
   2.8411900e-01
   3.0120800e-01
   3.1219500e-01
   3.1768800e-01
   3.3172600e-01
   3.3111600e-01
   3.1768800e-01
   3.2470700e-01
   3.1890900e-01
   2.9632600e-01
   3.1158400e-01
   3.2806400e-01
   3.3874500e-01
   3.5553000e-01
   3.6560100e-01
   3.5736100e-01
   3.6468500e-01
   3.6865200e-01
   3.6468500e-01
   3.5675000e-01
   3.5888700e-01
   3.7658700e-01
   3.9245600e-01
   3.8330100e-01
   3.8726800e-01
   4.1351300e-01
   4.1137700e-01
   3.9733900e-01
   3.8452100e-01
   3.2531700e-01
   3.4759500e-01
   3.7872300e-01
   3.9123500e-01
   3.9947500e-01
   4.0466300e-01
   4.1870100e-01
   3.9093000e-01
   3.8360600e-01
   4.0191700e-01
   4.0100100e-01
   3.9581300e-01
   3.9794900e-01
   4.0344200e-01
   4.1870100e-01
   4.1564900e-01
   3.9947500e-01
   4.1259800e-01
   3.5064700e-01
   3.5919200e-01
   3.7567100e-01
   3.3996600e-01
   3.3660900e-01
   3.4240700e-01
   3.2012900e-01
   3.2592800e-01
   3.4271200e-01
   3.0334500e-01
   2.5878900e-01
   2.6397700e-01
   2.5268600e-01
   2.3864700e-01
   2.3254400e-01
   2.1820100e-01
   2.0477300e-01
   2.1392800e-01
   2.1850600e-01
   2.0111100e-01
   1.9836400e-01
   1.9958500e-01
   1.8890400e-01
   1.9714400e-01
   1.8249500e-01
   1.7639200e-01
   1.7639200e-01
   1.4312700e-01
   1.6326900e-01
   1.7059300e-01
   1.6479500e-01
   1.7364500e-01
   1.5441900e-01
   1.6204800e-01
   2.0324700e-01
   1.8280000e-01
   1.5502900e-01
   1.4892600e-01
   1.4953600e-01
   1.4343300e-01
   1.2847900e-01
   1.3946500e-01
   1.5258800e-01
   1.6113300e-01
   1.7395000e-01
   1.6998300e-01
   1.6204800e-01
   1.8127400e-01
   1.7608600e-01
   1.4679000e-01
   1.5136700e-01
   1.6143800e-01
   1.5991200e-01
   1.5502900e-01
   1.5808100e-01
   1.6601600e-01
   1.7211900e-01
   1.5625000e-01
   1.5045200e-01
   1.5350300e-01
   1.6784700e-01
   1.7822300e-01
   1.7608600e-01
   1.6296400e-01
   1.6235400e-01
   1.7730700e-01
   1.8768300e-01
   1.8707300e-01
   1.6601600e-01
   1.7486600e-01
   1.9500700e-01
   1.9653300e-01
   1.7089800e-01
   1.4679000e-01
   1.4556900e-01
   1.4495800e-01
   1.7486600e-01
   1.7883300e-01
   1.5777600e-01
   1.4831500e-01
   1.5197800e-01
   1.7150900e-01
   1.7608600e-01
   1.5380900e-01
   1.6906700e-01
   1.7578100e-01
   1.8188500e-01
   1.7944300e-01
   1.6571000e-01
   1.5319800e-01
   1.4251700e-01
   1.4526400e-01
   1.4434800e-01
   1.4831500e-01
   1.8127400e-01
   1.8463100e-01
   1.9897500e-01
   1.7089800e-01
   1.6449000e-01
   1.6021700e-01
   1.7150900e-01
   1.4251700e-01
   1.3061500e-01
   1.5960700e-01
   1.5655500e-01
   1.6326900e-01
   1.5533400e-01
   1.5258800e-01
   1.4251700e-01
   1.4740000e-01
   1.5808100e-01
   1.4160200e-01
   1.4190700e-01
   1.5014600e-01
   1.8585200e-01
   1.8493700e-01
   1.6571000e-01
   1.3244600e-01
   1.2023900e-01
   1.3732900e-01
   1.5502900e-01
   1.6143800e-01
   1.5411400e-01
   1.4495800e-01
   1.6326900e-01
   1.5930200e-01
   1.5777600e-01
   1.5655500e-01
   1.7608600e-01
   1.4648400e-01
   1.3366700e-01
   1.3855000e-01
   1.4465300e-01
   1.4373800e-01
   1.3702400e-01
   1.3519300e-01
   1.3580300e-01
   1.5014600e-01
   1.5594500e-01
   1.3305700e-01
   1.2847900e-01
   1.4099100e-01
   1.4495800e-01
   1.5777600e-01
   1.3671900e-01
   1.4556900e-01
   1.4862100e-01
   1.5045200e-01
   1.4343300e-01
   1.4129600e-01
   1.3977100e-01
   1.3946500e-01
   1.4373800e-01
   1.3153100e-01
   1.5289300e-01
   1.6265900e-01
   1.5747100e-01
   1.4038100e-01
   1.3977100e-01
   1.5472400e-01
   1.4465300e-01
   1.4495800e-01
   1.4068600e-01
   1.3122600e-01
   1.3458300e-01
   1.4068600e-01
   1.5289300e-01
   1.4495800e-01
   1.4984100e-01
   1.6510000e-01
   1.4495800e-01
   1.1535600e-01
   1.3000500e-01
   1.4434800e-01
   1.3244600e-01
   1.3885500e-01
   1.5075700e-01
   1.4831500e-01
   1.5899700e-01
   1.5472400e-01
   1.4953600e-01
   1.4923100e-01
   1.4373800e-01
   1.3671900e-01
   1.4892600e-01
   1.4221200e-01
   1.3732900e-01
   1.5533400e-01
   1.5716600e-01
   1.6082800e-01
   1.6387900e-01
   1.6784700e-01
   1.4099100e-01
   1.2878400e-01
   1.3763400e-01
   1.3061500e-01
   1.1871300e-01
   1.3000500e-01
   1.2298600e-01
   1.3946500e-01
   1.3549800e-01
   1.4984100e-01
   1.5289300e-01
   1.2939500e-01
   1.4007600e-01
   1.6601600e-01
   1.7517100e-01
   1.7120400e-01
   1.4190700e-01
   1.2634300e-01
   1.1627200e-01
   1.3946500e-01
   1.4495800e-01
   1.5106200e-01
   1.6113300e-01
   1.7456100e-01
   1.4160200e-01
   1.3275100e-01
   1.1718800e-01
   1.2237500e-01
   1.3977100e-01
   1.5899700e-01
   1.6967800e-01
   1.6204800e-01
   1.5899700e-01
   1.7547600e-01
   1.4740000e-01
   1.3519300e-01
   1.2542700e-01
   1.4434800e-01
   1.6143800e-01
   1.5350300e-01
   1.2939500e-01
   1.1077900e-01
   1.2573200e-01
   1.2481700e-01
   1.4770500e-01
   1.5960700e-01
   1.4953600e-01
   1.5075700e-01
   1.5289300e-01
   1.4038100e-01
   1.6174300e-01
   1.6449000e-01
   1.6540500e-01
   1.7272900e-01
   1.6204800e-01
   1.5106200e-01
   1.4312700e-01
   1.3488800e-01
   1.4740000e-01
   1.4373800e-01
   1.3610800e-01
   1.4099100e-01
   1.4221200e-01
   1.5930200e-01
   1.6296400e-01
   1.6052200e-01
   1.6510000e-01
   1.4770500e-01
   1.3244600e-01
   1.4251700e-01
   1.5411400e-01
   1.6052200e-01
   1.7852800e-01
   1.6387900e-01
   1.6601600e-01
   1.5075700e-01
   1.3732900e-01
   1.2298600e-01
   1.1749300e-01
   1.3427700e-01
   1.6265900e-01
   1.6449000e-01
   1.6540500e-01
   1.7211900e-01
   1.6876200e-01
   1.8676800e-01
   1.6693100e-01
   1.2695300e-01
   1.0742200e-01
   1.5075700e-01
   1.6326900e-01
   1.4801000e-01
   1.5655500e-01
   1.7028800e-01
   1.8981900e-01
   1.7120400e-01
   1.3946500e-01
   1.2054400e-01
   1.1993400e-01
   1.4740000e-01
   1.6296400e-01
   1.5625000e-01
   1.4953600e-01
   1.5991200e-01
   1.6113300e-01
   1.7913800e-01
   1.4953600e-01
   1.3488800e-01
   1.5686000e-01
   1.6906700e-01
   1.6449000e-01
   1.5075700e-01
   1.6174300e-01
   1.5594500e-01
   1.4007600e-01
   1.2390100e-01
   1.4526400e-01
   1.6815200e-01
   1.4862100e-01
   1.4679000e-01
   1.5258800e-01
   1.6540500e-01
   1.9226100e-01
   1.8707300e-01
   1.7120400e-01
   1.8310500e-01
   1.6845700e-01
   1.5899700e-01
   1.5197800e-01
   1.7395000e-01
   1.6204800e-01
   1.7730700e-01
   1.9165000e-01
   1.8585200e-01
   1.9348100e-01
   1.9073500e-01
   1.7150900e-01
   1.9958500e-01
   1.8432600e-01
   1.7028800e-01
   1.8829300e-01
   1.9256600e-01
   2.1331800e-01
   2.2766100e-01
   2.1270800e-01
   2.0172100e-01
   2.1789600e-01
   2.1759000e-01
   2.0813000e-01
   2.2094700e-01
   2.2369400e-01
   2.1240200e-01
   2.0324700e-01
   1.8768300e-01
   1.8890400e-01
   1.7028800e-01
   1.6632100e-01
   1.4526400e-01
   1.4526400e-01
   1.5258800e-01
   1.5869100e-01
   1.5594500e-01
   1.8127400e-01
   1.2817400e-01
   1.1962900e-01
   1.4953600e-01
   1.5899700e-01
   1.4587400e-01
   1.3305700e-01
   1.2786900e-01
   1.2512200e-01
   1.3610800e-01
   1.5686000e-01
   1.5564000e-01
   1.5350300e-01
   1.5686000e-01
   1.4343300e-01
   1.3855000e-01
   1.4679000e-01
   1.5899700e-01
   1.8127400e-01
   1.5594500e-01
   1.3244600e-01
   1.5258800e-01
   1.3641400e-01
   1.2634300e-01
   1.2420700e-01
   1.3641400e-01
   1.2298600e-01
   1.2359600e-01
   1.4160200e-01
   1.5228300e-01
   1.6265900e-01
   1.6021700e-01
   1.4892600e-01
   1.4495800e-01
   1.6876200e-01
   1.5625000e-01
   1.5136700e-01
   1.4129600e-01
   1.1322000e-01
   8.5754400e-02
   9.2163100e-02
   1.0345500e-01
   1.1291500e-01
   1.3427700e-01
   1.8005400e-01
   2.1881100e-01
   2.9144300e-01
   3.7231400e-01
   4.4555700e-01
   5.1452600e-01
   5.7708700e-01
   6.0150100e-01
   5.4870600e-01
   5.0750700e-01
   4.5898400e-01
   3.8024900e-01
   3.5553000e-01
   3.0853300e-01
   1.9012500e-01
   4.6386700e-02
  -5.0048800e-02
  -8.2397500e-02
  -7.3852500e-02
  -2.4108900e-02
   2.7771000e-02
   8.2702600e-02
   7.9345700e-02
   6.1950700e-02
   1.0711700e-01
   1.4221200e-01
   1.6540500e-01
   1.9714400e-01
   1.9561800e-01
   2.0813000e-01
   2.1545400e-01
   2.0111100e-01
   1.8432600e-01
   1.9989000e-01
   1.9775400e-01
   1.9989000e-01
   2.1453900e-01
   2.2949200e-01
   1.9989000e-01
   2.1820100e-01
   2.2491500e-01
   1.9012500e-01
   1.8310500e-01
   1.9958500e-01
   2.0355200e-01
   2.1118200e-01
   2.3529100e-01
   2.3559600e-01
   2.3986800e-01
   2.3376500e-01
   2.4017300e-01
   2.0752000e-01
   1.6815200e-01
   1.9653300e-01
   2.0874000e-01
   1.8646200e-01
   1.9348100e-01
   2.1057100e-01
   2.1118200e-01
   2.1148700e-01
   2.2125200e-01
   2.2705100e-01
   2.3345900e-01
   2.2399900e-01
   2.2460900e-01
   2.2369400e-01
   2.3925800e-01
   2.7740500e-01
   2.6977500e-01
   2.4658200e-01
   2.2949200e-01
   2.1301300e-01
   2.4353000e-01
   2.4810800e-01
   2.1209700e-01
   2.2583000e-01
   2.2735600e-01
   2.4993900e-01
   2.7679400e-01
   2.8320300e-01
   2.7404800e-01
   2.8533900e-01
   2.9571500e-01
   2.6336700e-01
   2.5451700e-01
   2.6062000e-01
   2.5268600e-01
   2.7862500e-01
   2.9815700e-01
   2.7557400e-01
   2.6702900e-01
   2.8411900e-01
   2.7893100e-01
   2.9296900e-01
   2.9724100e-01
   2.9754600e-01
   3.1860400e-01
   3.0395500e-01
   2.9846200e-01
   3.2623300e-01
   3.3660900e-01
   3.2501200e-01
   3.2440200e-01
   3.2928500e-01
   3.1951900e-01
   3.0395500e-01
   3.1311000e-01
   3.2440200e-01
   3.3599900e-01
   3.3752400e-01
   3.4973100e-01
   3.5797100e-01
   3.3844000e-01
   3.4210200e-01
   3.7109400e-01
   3.7536600e-01
   3.7475600e-01
   3.7262000e-01
   3.7323000e-01
   3.8818400e-01
   3.9764400e-01
   4.0679900e-01
   4.1442900e-01
   4.2236300e-01
   3.6285400e-01
   3.6193800e-01
   3.8909900e-01
   3.9733900e-01
   4.0985100e-01
   4.0954600e-01
   4.0924100e-01
   4.1595500e-01
   4.2358400e-01
   3.9489700e-01
   4.0557900e-01
   4.3121300e-01
   4.4311500e-01
   4.5074500e-01
   4.5593300e-01
   4.2297400e-01
   4.1687000e-01
   4.2480500e-01
   3.9398200e-01
   4.0863000e-01
   4.2419400e-01
   4.1595500e-01
   4.1259800e-01
   4.1748000e-01
   4.1748000e-01
   4.1015600e-01
   4.1076700e-01
   4.1015600e-01
   3.8299600e-01
   3.8574200e-01
   3.9611800e-01
   3.8665800e-01
   3.7414600e-01
   3.2287600e-01
   2.8747600e-01
   2.9785200e-01
   2.6184100e-01
   2.4261500e-01
   2.3712200e-01
   2.4383500e-01
   2.4231000e-01
   2.3040800e-01
   2.3529100e-01
   2.3712200e-01
   2.3040800e-01
   2.1881100e-01
   2.0904500e-01
   2.0965600e-01
   2.0233200e-01
   2.0019500e-01
   1.9470200e-01
   1.8615700e-01
   1.9378700e-01
   1.9775400e-01
   1.8737800e-01
   1.8951400e-01
   1.9287100e-01
   1.9043000e-01
   1.8493700e-01
   1.8432600e-01
   2.0477300e-01
   1.9897500e-01
   1.9012500e-01
   1.8707300e-01
   1.6937300e-01
   1.7913800e-01
   1.8005400e-01
   1.8341100e-01
   1.9317600e-01
   1.9531300e-01
   1.9653300e-01
   1.9683800e-01
   1.9378700e-01
   1.7761200e-01
   1.4282200e-01
   1.5747100e-01
   1.7242400e-01
   1.7578100e-01
   1.6052200e-01
   1.6937300e-01
   1.7517100e-01
   1.7913800e-01
   1.9561800e-01
   2.1148700e-01
   2.0080600e-01
   1.9104000e-01
   2.0660400e-01
   2.0507800e-01
   1.9134500e-01
   2.0446800e-01
   1.8249500e-01
   1.7303500e-01
   1.8066400e-01
   1.7791700e-01
   1.8310500e-01
   1.7974900e-01
   1.8890400e-01
   1.8676800e-01
   1.8951400e-01
   1.9775400e-01
   2.3620600e-01
   2.2918700e-01
   1.9928000e-01
   1.7120400e-01
   1.3580300e-01
   1.3946500e-01
   1.6449000e-01
   1.7120400e-01
   1.6449000e-01
   1.7456100e-01
   1.6326900e-01
   1.6937300e-01
   1.9561800e-01
   2.0263700e-01
   2.0996100e-01
   2.0782500e-01
   1.8951400e-01
   1.3336200e-01
   1.4770500e-01
   1.4892600e-01
   1.5930200e-01
   1.6357400e-01
   1.6906700e-01
   1.7669700e-01
   1.6723600e-01
   1.7364500e-01
   1.6967800e-01
   1.6967800e-01
   1.6967800e-01
   1.9683800e-01
   2.0660400e-01
   1.7456100e-01
   1.8646200e-01
   1.6784700e-01
   1.5319800e-01
   1.7303500e-01
   1.8158000e-01
   1.9775400e-01
   1.7944300e-01
   1.5777600e-01
   1.2664800e-01
   1.3122600e-01
   1.5258800e-01
   1.7272900e-01
   1.6387900e-01
   1.5625000e-01
   1.6754200e-01
   1.6235400e-01
   1.5777600e-01
   1.8371600e-01
   1.6845700e-01
   1.5869100e-01
   1.6113300e-01
   1.6174300e-01
   1.7364500e-01
   1.5472400e-01
   1.6204800e-01
   1.5167200e-01
   1.4129600e-01
   1.4221200e-01
   1.5228300e-01
   1.6082800e-01
   1.6449000e-01
   1.7456100e-01
   1.9561800e-01
   1.7486600e-01
   1.4617900e-01
   1.3336200e-01
   1.1688200e-01
   1.3855000e-01
   1.5533400e-01
   1.6693100e-01
   1.5564000e-01
   1.7242400e-01
   1.5472400e-01
   1.4160200e-01
   1.3855000e-01
   1.5319800e-01
   1.5960700e-01
   1.6449000e-01
   1.5899700e-01
   1.5228300e-01
   1.7059300e-01
   1.8920900e-01
   1.6113300e-01
   1.2573200e-01
   1.3519300e-01
   1.3946500e-01
   1.4221200e-01
   1.3885500e-01
   1.4007600e-01
   1.4282200e-01
   1.5502900e-01
   1.6693100e-01
   1.6571000e-01
   1.8676800e-01
   1.8341100e-01
   1.5655500e-01
   1.3946500e-01
   1.3305700e-01
   1.4190700e-01
   1.5747100e-01
   1.5655500e-01
   1.6998300e-01
   1.6449000e-01
   1.6113300e-01
   1.4648400e-01
   1.4831500e-01
   1.2207000e-01
   1.3275100e-01
   1.3855000e-01
   1.3732900e-01
   1.4160200e-01
   1.5319800e-01
   1.4770500e-01
   1.5502900e-01
   1.6876200e-01
   1.7364500e-01
   1.7395000e-01
   1.7059300e-01
   1.7822300e-01
   1.4282200e-01
   1.3824500e-01
   1.6021700e-01
   1.4038100e-01
   1.2756300e-01
   1.2481700e-01
   1.2878400e-01
   1.3305700e-01
   1.5747100e-01
   1.7334000e-01
   1.5808100e-01
   1.5594500e-01
   1.6845700e-01
   1.6784700e-01
   1.2390100e-01
   1.1016800e-01
   1.3183600e-01
   1.2878400e-01
   1.4923100e-01
   1.7852800e-01
   1.7608600e-01
   1.7364500e-01
   1.6387900e-01
   1.4434800e-01
   1.5991200e-01
   1.7059300e-01
   1.3824500e-01
   1.2847900e-01
   1.4221200e-01
   1.5289300e-01
   1.5655500e-01
   1.4434800e-01
   1.7089800e-01
   1.4190700e-01
   1.3092000e-01
   1.5899700e-01
   1.5625000e-01
   1.3702400e-01
   1.4740000e-01
   1.6204800e-01
   1.6235400e-01
   1.5289300e-01
   1.6265900e-01
   1.5350300e-01
   1.5686000e-01
   1.6326900e-01
   1.4953600e-01
   1.5045200e-01
   1.3519300e-01
   1.3000500e-01
   1.2603800e-01
   1.4801000e-01
   1.4495800e-01
   1.3977100e-01
   1.4740000e-01
   1.6143800e-01
   1.6479500e-01
   1.6479500e-01
   1.3855000e-01
   1.1962900e-01
   1.3092000e-01
   1.5564000e-01
   1.5930200e-01
   1.5777600e-01
   1.3122600e-01
   1.5228300e-01
   1.6601600e-01
   1.5411400e-01
   1.5167200e-01
   1.6723600e-01
   1.7608600e-01
   1.5167200e-01
   1.4099100e-01
   1.6143800e-01
   1.5991200e-01
   1.6082800e-01
   1.6296400e-01
   1.6052200e-01
   1.6815200e-01
   1.7852800e-01
   1.7089800e-01
   1.8158000e-01
   2.1881100e-01
   1.9622800e-01
   2.0446800e-01
   1.7150900e-01
   1.3946500e-01
   1.3366700e-01
   1.5167200e-01
   2.0324700e-01
   2.0965600e-01
   2.0965600e-01
   2.0416300e-01
   1.7974900e-01
   1.9775400e-01
   2.1057100e-01
   2.2216800e-01
   2.1942100e-01
   2.1789600e-01
   2.0446800e-01
   1.8524200e-01
   1.9683800e-01
   2.0446800e-01
   2.0202600e-01
   1.9622800e-01
   1.8707300e-01
   1.8493700e-01
   1.8096900e-01
   1.7334000e-01
   1.4251700e-01
   1.4007600e-01
   1.4770500e-01
   1.5502900e-01
   1.6204800e-01
   1.5228300e-01
   1.5655500e-01
   1.6571000e-01
   1.5533400e-01
   1.3580300e-01
   1.3305700e-01
   1.5991200e-01
   1.3885500e-01
   1.1352500e-01
   1.3488800e-01
   1.3427700e-01
   1.4404300e-01
   1.6784700e-01
   1.3153100e-01
   1.2634300e-01
   1.3519300e-01
   1.1718800e-01
   1.1962900e-01
   1.5716600e-01
   1.5289300e-01
   1.5136700e-01
   1.5655500e-01
   1.3732900e-01
   1.1261000e-01
   1.3153100e-01
   1.4679000e-01
   1.2878400e-01
   1.3092000e-01
   1.3427700e-01
   1.5472400e-01
   1.4801000e-01
   1.5747100e-01
   1.5411400e-01
   1.7425500e-01
   1.6479500e-01
   1.4221200e-01
   9.3383800e-02
   1.0925300e-01
   9.8571800e-02
   8.1481900e-02
   9.5520000e-02
   1.1077900e-01
   1.0803200e-01
   1.2847900e-01
   1.6449000e-01
   2.3468000e-01
   2.9113800e-01
   3.6193800e-01
   4.6295200e-01
   5.3955100e-01
   5.8013900e-01
   5.7403600e-01
   5.1574700e-01
   4.7760000e-01
   4.3792700e-01
   3.9001500e-01
   3.6163300e-01
   3.1402600e-01
   2.0507800e-01
   7.2631800e-02
  -4.6386700e-02
  -8.8195800e-02
  -5.4626500e-02
  -9.4604500e-03
   1.5869100e-02
   4.6386700e-02
   7.4768100e-02
   9.0942400e-02
   1.0986300e-01
   1.4312700e-01
   1.7486600e-01
   1.6510000e-01
   1.7059300e-01
   1.8005400e-01
   1.9531300e-01
   1.9928000e-01
   1.7761200e-01
   1.9714400e-01
   2.0629900e-01
   1.9470200e-01
   2.0324700e-01
   2.0813000e-01
   2.1850600e-01
   2.0935100e-01
   1.8219000e-01
   2.0385700e-01
   1.9195600e-01
   1.4282200e-01
   1.6815200e-01
   1.9714400e-01
   2.0324700e-01
   2.0507800e-01
   2.2094700e-01
   2.2705100e-01
   1.8035900e-01
   1.7883300e-01
   1.9287100e-01
   2.0263700e-01
   2.1026600e-01
   2.1453900e-01
   2.1759000e-01
   2.1789600e-01
   2.2613500e-01
   2.2369400e-01
   2.2247300e-01
   2.3986800e-01
   2.4749800e-01
   2.3620600e-01
   2.1698000e-01
   2.2125200e-01
   2.1728500e-01
   2.2674600e-01
   2.2094700e-01
   2.0690900e-01
   2.1820100e-01
   2.2888200e-01
   2.3590100e-01
   2.4231000e-01
   2.5299100e-01
   2.5543200e-01
   2.7252200e-01
   2.6367200e-01
   2.7404800e-01
   2.8686500e-01
   2.6001000e-01
   2.6062000e-01
   2.7404800e-01
   2.4536100e-01
   2.2918700e-01
   2.2857700e-01
   2.5299100e-01
   2.6306200e-01
   2.7618400e-01
   2.6092500e-01
   2.6306200e-01
   2.7587900e-01
   2.8106700e-01
   2.9022200e-01
   3.0944800e-01
   3.2409700e-01
   3.0578600e-01
   2.8991700e-01
   2.5909400e-01
   2.7710000e-01
   3.0761700e-01
   3.1036400e-01
   3.0609100e-01
   3.1463600e-01
   3.2623300e-01
   3.2745400e-01
   3.4301800e-01
   3.5217300e-01
   3.4881600e-01
   3.7048300e-01
   3.6499000e-01
   3.3660900e-01
   3.2501200e-01
   3.2836900e-01
   3.4301800e-01
   3.5308800e-01
   3.6468500e-01
   3.9032000e-01
   3.9032000e-01
   3.7719700e-01
   3.8543700e-01
   3.7017800e-01
   3.9245600e-01
   4.1076700e-01
   4.0252700e-01
   4.2175300e-01
   3.9825400e-01
   3.7872300e-01
   3.8604700e-01
   3.9703400e-01
   4.1198700e-01
   4.0954600e-01
   4.0008500e-01
   3.9978000e-01
   4.2694100e-01
   4.4372600e-01
   4.2755100e-01
   4.2205800e-01
   4.2785600e-01
   4.2327900e-01
   4.0191700e-01
   4.2877200e-01
   4.2755100e-01
   4.3212900e-01
   4.3457000e-01
   4.3457000e-01
   4.2602500e-01
   4.1687000e-01
   4.1076700e-01
   3.9276100e-01
   3.8970900e-01
   3.9184600e-01
   3.8055400e-01
   3.6743200e-01
   3.3538800e-01
   3.2806400e-01
   3.2226600e-01
   3.1555200e-01
   2.9083300e-01
   2.7862500e-01
   2.5939900e-01
   2.6672400e-01
   2.4505600e-01
   2.2460900e-01
   2.5054900e-01
   2.4047900e-01
   2.0050000e-01
   1.8280000e-01
   2.1423300e-01
   2.0263700e-01
   2.0385700e-01
   2.2125200e-01
   1.9165000e-01
   1.7364500e-01
   1.7211900e-01
   1.9226100e-01
   1.6510000e-01
   1.2420700e-01
   1.3305700e-01
   1.4465300e-01
   1.6052200e-01
   1.6815200e-01
   1.6571000e-01
   1.5960700e-01
   1.7272900e-01
   1.8035900e-01
   1.7120400e-01
   1.7059300e-01
   1.6082800e-01
   1.5045200e-01
   1.6113300e-01
   1.5441900e-01
   1.5869100e-01
   1.6815200e-01
   1.9897500e-01
   1.7456100e-01
   1.7059300e-01
   1.6967800e-01
   1.5380900e-01
   1.4251700e-01
   1.4434800e-01
   1.6632100e-01
   1.5838600e-01
   1.6204800e-01
   1.9622800e-01
   1.9104000e-01
   1.8158000e-01
   1.3946500e-01
   1.2481700e-01
   1.2451200e-01
   1.5411400e-01
   1.7089800e-01
   1.5655500e-01
   1.6693100e-01
   1.7791700e-01
   1.6754200e-01
   1.6571000e-01
   1.7089800e-01
   1.7913800e-01
   1.7303500e-01
   1.8737800e-01
   1.7120400e-01
   1.2664800e-01
   1.3549800e-01
   1.5747100e-01
   1.6937300e-01
   1.7883300e-01
   1.5594500e-01
   1.5014600e-01
   1.5594500e-01
   1.5228300e-01
   1.7883300e-01
   1.6540500e-01
   1.5106200e-01
   1.6326900e-01
   1.6845700e-01
   1.8188500e-01
   1.6052200e-01
   1.5930200e-01
   1.7852800e-01
   1.8341100e-01
   2.0935100e-01
   1.6449000e-01
   1.1688200e-01
   1.0894800e-01
   1.1566200e-01
   1.3122600e-01
   1.3763400e-01
   1.3641400e-01
   1.4434800e-01
   1.4648400e-01
   1.5136700e-01
   1.5808100e-01
   1.6235400e-01
   1.7608600e-01
   2.0050000e-01
   1.8280000e-01
   1.6326900e-01
   1.2756300e-01
   9.1247600e-02
   1.0925300e-01
   1.2298600e-01
   1.2451200e-01
   1.2847900e-01
   1.3732900e-01
   1.2817400e-01
   1.4312700e-01
   1.4862100e-01
   1.4465300e-01
   1.5045200e-01
   1.6357400e-01
   1.8432600e-01
   1.7395000e-01
   1.7913800e-01
   1.5960700e-01
   1.3183600e-01
   1.2359600e-01
   1.1322000e-01
   1.0223400e-01
   1.1077900e-01
   1.2481700e-01
   1.3427700e-01
   1.3183600e-01
   1.3061500e-01
   1.3427700e-01
   1.3458300e-01
   1.5075700e-01
   1.5960700e-01
   1.5014600e-01
   1.3824500e-01
   1.2023900e-01
   1.2054400e-01
   1.3122600e-01
   1.5045200e-01
   1.7272900e-01
   1.5075700e-01
   1.2115500e-01
   1.3488800e-01
   1.3336200e-01
   1.0681200e-01
   1.1322000e-01
   1.0681200e-01
   1.1047400e-01
   1.1596700e-01
   1.1718800e-01
   1.3092000e-01
   1.4373800e-01
   1.4495800e-01
   1.2603800e-01
   1.4038100e-01
   1.5594500e-01
   1.6143800e-01
   1.6937300e-01
   1.1566200e-01
   1.0833700e-01
   1.1047400e-01
   1.0925300e-01
   1.1505100e-01
   1.2115500e-01
   1.2908900e-01
   1.3549800e-01
   1.5075700e-01
   1.3549800e-01
   1.2207000e-01
   1.2695300e-01
   1.4129600e-01
   1.4740000e-01
   1.3946500e-01
   1.1840800e-01
   1.2451200e-01
   1.5380900e-01
   1.0833700e-01
   9.5825200e-02
   1.1962900e-01
   1.3916000e-01
   1.4709500e-01
   1.3885500e-01
   1.1077900e-01
   1.1535600e-01
   1.0711700e-01
   1.1901900e-01
   1.3519300e-01
   1.3427700e-01
   1.2970000e-01
   1.5564000e-01
   1.4892600e-01
   1.2268100e-01
   1.2512200e-01
   1.5167200e-01
   1.2420700e-01
   1.3031000e-01
   1.2603800e-01
   1.1810300e-01
   1.1261000e-01
   1.0803200e-01
   1.0833700e-01
   1.2146000e-01
   1.4038100e-01
   1.4740000e-01
   1.4526400e-01
   1.3610800e-01
   1.3397200e-01
   1.2756300e-01
   1.3305700e-01
   1.3031000e-01
   8.5449200e-02
   1.0070800e-01
   1.1718800e-01
   1.1596700e-01
   1.2176500e-01
   1.3458300e-01
   1.3671900e-01
   1.2512200e-01
   1.2359600e-01
   1.2970000e-01
   1.2817400e-01
   1.2390100e-01
   1.3305700e-01
   1.2146000e-01
   1.4160200e-01
   1.4373800e-01
   1.3214100e-01
   1.2542700e-01
   1.4770500e-01
   1.5716600e-01
   1.6662600e-01
   1.3458300e-01
   1.3458300e-01
   1.3549800e-01
   1.4526400e-01
   1.3519300e-01
   1.3458300e-01
   1.5472400e-01
   1.9836400e-01
   2.1545400e-01
   1.8798800e-01
   1.8951400e-01
   1.2786900e-01
   1.0345500e-01
   8.5144000e-02
   1.2847900e-01
   1.6021700e-01
   1.7303500e-01
   1.6998300e-01
   1.6510000e-01
   1.7028800e-01
   1.7761200e-01
   1.8615700e-01
   1.8402100e-01
   1.7608600e-01
   1.8371600e-01
   1.9226100e-01
   1.8402100e-01
   1.8981900e-01
   1.6998300e-01
   1.7364500e-01
   1.8127400e-01
   1.8707300e-01
   1.6784700e-01
   1.5167200e-01
   1.4190700e-01
   1.4129600e-01
   1.2695300e-01
   1.2847900e-01
   1.4495800e-01
   1.2237500e-01
   1.0009800e-01
   1.1688200e-01
   1.2878400e-01
   1.0925300e-01
   1.0376000e-01
   1.2268100e-01
   1.1993400e-01
   1.3336200e-01
   1.0742200e-01
   1.2085000e-01
   1.4007600e-01
   1.1291500e-01
   9.5520000e-02
   9.8877000e-02
   9.8877000e-02
   1.0162400e-01
   1.0253900e-01
   1.2451200e-01
   1.3336200e-01
   1.1871300e-01
   1.1077900e-01
   1.1627200e-01
   1.2146000e-01
   1.1810300e-01
   1.0345500e-01
   9.3689000e-02
   9.1552700e-02
   1.1688200e-01
   1.2847900e-01
   1.0559100e-01
   1.1749300e-01
   1.2115500e-01
   1.0437000e-01
   1.0284400e-01
   1.0681200e-01
   1.1352500e-01
   1.1932400e-01
   1.0376000e-01
   9.1247600e-02
   8.3923300e-02
   9.4299300e-02
   8.9111300e-02
   1.1108400e-01
   1.6723600e-01
   2.4658200e-01
   3.0456500e-01
   3.9550800e-01
   4.4464100e-01
   4.9408000e-01
   5.5725100e-01
   5.6274400e-01
   5.0933800e-01
   4.1626000e-01
   3.7323000e-01
   3.5186800e-01
   2.9693600e-01
   2.3681600e-01
   1.4160200e-01
   2.6550300e-02
  -7.9345700e-02
  -1.0864300e-01
  -7.1411100e-02
  -4.2724600e-03
   2.5939900e-02
   5.6152300e-02
   7.8735400e-02
   9.1857900e-02
   1.0498000e-01
   1.4862100e-01
   1.4679000e-01
   1.2512200e-01
   1.1505100e-01
   1.4617900e-01
   1.6326900e-01
   1.6143800e-01
   1.6693100e-01
   1.7120400e-01
   1.7303500e-01
   1.7150900e-01
   1.4953600e-01
   1.6876200e-01
   1.7639200e-01
   1.8005400e-01
   1.7822300e-01
   1.7059300e-01
   1.7791700e-01
   1.5502900e-01
   1.5075700e-01
   1.5930200e-01
   1.4892600e-01
   1.5747100e-01
   1.6998300e-01
   1.7974900e-01
   1.8493700e-01
   1.8829300e-01
   1.8371600e-01
   1.9073500e-01
   2.0263700e-01
   2.2186300e-01
   1.7456100e-01
   1.2207000e-01
   1.6021700e-01
   1.7364500e-01
   1.6510000e-01
   1.7211900e-01
   1.7822300e-01
   1.7181400e-01
   1.7486600e-01
   1.9409200e-01
   2.0050000e-01
   2.0050000e-01
   2.1209700e-01
   1.9165000e-01
   2.0935100e-01
   2.3925800e-01
   2.2857700e-01
   2.1942100e-01
   2.1514900e-01
   1.9378700e-01
   1.9744900e-01
   2.0385700e-01
   2.0294200e-01
   2.0965600e-01
   2.1118200e-01
   2.1484400e-01
   2.2491500e-01
   2.2857700e-01
   2.3376500e-01
   2.4688700e-01
   2.3529100e-01
   2.2857700e-01
   2.5054900e-01
   2.5665300e-01
   2.4749800e-01
   2.5177000e-01
   2.3773200e-01
   2.6184100e-01
   2.4749800e-01
   2.4780300e-01
   2.6092500e-01
   2.7191200e-01
   2.6886000e-01
   2.6245100e-01
   2.7954100e-01
   2.9205300e-01
   3.1250000e-01
   2.9968300e-01
   2.9327400e-01
   3.0914300e-01
   3.0670200e-01
   2.7771000e-01
   3.0090300e-01
   3.2562300e-01
   3.3386200e-01
   3.1250000e-01
   2.9754600e-01
   3.0487100e-01
   3.2379200e-01
   3.3142100e-01
   3.4088100e-01
   3.2714800e-01
   3.4851100e-01
   3.3813500e-01
   3.3783000e-01
   3.6407500e-01
   3.6865200e-01
   3.5919200e-01
   3.7994400e-01
   3.8726800e-01
   3.7109400e-01
   3.8024900e-01
   3.8421600e-01
   3.7567100e-01
   3.5888700e-01
   3.7139900e-01
   4.0191700e-01
   4.2419400e-01
   4.2450000e-01
   4.1870100e-01
   4.1351300e-01
   3.9611800e-01
   3.7414600e-01
   3.8970900e-01
   3.7902800e-01
   3.8055400e-01
   4.1259800e-01
   4.2297400e-01
   4.1900600e-01
   3.8116500e-01
   3.7323000e-01
   3.7658700e-01
   3.4515400e-01
   3.3630400e-01
   3.4759500e-01
   3.2165500e-01
   2.8869600e-01
   2.6794400e-01
   2.7038600e-01
   2.7862500e-01
   2.7130100e-01
   2.6641800e-01
   2.4627700e-01
   2.2522000e-01
   2.2155800e-01
   2.0416300e-01
   1.9592300e-01
   1.8829300e-01
   1.8188500e-01
   1.8676800e-01
   1.9653300e-01
   1.8463100e-01
   1.6510000e-01
   1.5655500e-01
   1.4099100e-01
   1.2695300e-01
   1.4617900e-01
   1.3519300e-01
   1.2542700e-01
   1.3000500e-01
   1.2481700e-01
   1.2298600e-01
   1.2664800e-01
   1.2359600e-01
   1.1261000e-01
   1.3214100e-01
   1.4923100e-01
   1.3885500e-01
   1.3244600e-01
   1.4465300e-01
   1.3763400e-01
   1.2207000e-01
   1.0986300e-01
   9.6130400e-02
   1.1688200e-01
   1.1901900e-01
   9.4299300e-02
   1.1261000e-01
   1.2756300e-01
   1.2939500e-01
   1.3855000e-01
   1.5045200e-01
   1.5930200e-01
   1.1505100e-01
   9.1552700e-02
   9.8571800e-02
   1.3031000e-01
   1.3458300e-01
   1.2634300e-01
   1.1657700e-01
   1.3641400e-01
   1.2756300e-01
   1.3519300e-01
   1.3855000e-01
   1.2115500e-01
   1.4068600e-01
   1.4831500e-01
   1.4587400e-01
   1.1657700e-01
   1.3397200e-01
   1.3732900e-01
   1.3916000e-01
   1.1291500e-01
   1.0772700e-01
   1.0925300e-01
   1.2481700e-01
   1.3916000e-01
   1.4526400e-01
   1.3092000e-01
   1.5869100e-01
   1.4526400e-01
   1.4404300e-01
   1.5197800e-01
   1.4526400e-01
   1.2634300e-01
   1.2786900e-01
   1.4251700e-01
   9.9182100e-02
   8.6364700e-02
   1.0711700e-01
   1.1169400e-01
   1.2085000e-01
   1.1596700e-01
   1.0925300e-01
   1.1871300e-01
   1.2786900e-01
   1.3183600e-01
   1.4923100e-01
   1.1932400e-01
   8.8806200e-02
   9.3689000e-02
   1.0437000e-01
   1.1413600e-01
   1.1901900e-01
   1.1505100e-01
   1.0345500e-01
   1.0559100e-01
   1.1261000e-01
   1.0406500e-01
   1.0467500e-01
   1.3214100e-01
   1.4099100e-01
   1.4862100e-01
   1.1810300e-01
   6.0424800e-02
   6.3781700e-02
   6.6223100e-02
   7.9650900e-02
   8.0261200e-02
   9.1247600e-02
   7.5378400e-02
   7.7819800e-02
   9.7961400e-02
   9.9182100e-02
   1.0742200e-01
   1.1779800e-01
   1.4740000e-01
   1.1993400e-01
   8.8195800e-02
   8.6669900e-02
   8.8806200e-02
   8.6975100e-02
   9.1857900e-02
   8.9416500e-02
   7.3852500e-02
   6.2255900e-02
   6.9580100e-02
   1.0467500e-01
   1.0986300e-01
   1.0894800e-01
   1.0650600e-01
   9.0332000e-02
   9.4299300e-02
   8.4228500e-02
   8.6669900e-02
   7.2631800e-02
   8.4838900e-02
   9.7961400e-02
   1.0742200e-01
   9.7656300e-02
   6.7138700e-02
   7.7514600e-02
   1.1230500e-01
   1.0406500e-01
   7.0495600e-02
   6.5918000e-02
   7.9956100e-02
   5.2185100e-02
   7.0495600e-02
   9.0332000e-02
   9.0332000e-02
   8.9111300e-02
   1.0162400e-01
   1.0009800e-01
   6.5918000e-02
   6.9885300e-02
   5.9204100e-02
   7.7209500e-02
   9.3994100e-02
   1.0040300e-01
   9.0026900e-02
   8.4228500e-02
   8.3313000e-02
   8.7585400e-02
   7.5378400e-02
   7.5378400e-02
   9.4604500e-02
   1.2695300e-01
   1.2512200e-01
   1.1138900e-01
   7.6599100e-02
   6.1340300e-02
   5.6457500e-02
   7.6904300e-02
   8.9721700e-02
   9.5214800e-02
   1.0162400e-01
   1.1261000e-01
   6.2866200e-02
   7.4768100e-02
   6.9274900e-02
   8.7280300e-02
   7.8735400e-02
   7.2326700e-02
   8.0566400e-02
   7.8125000e-02
   9.1247600e-02
   9.1857900e-02
   9.0637200e-02
   9.4604500e-02
   1.0101300e-01
   9.0332000e-02
   8.7585400e-02
   1.0314900e-01
   9.3383800e-02
   8.8195800e-02
   8.6669900e-02
   9.3689000e-02
   1.0314900e-01
   9.6740700e-02
   9.7961400e-02
   8.9416500e-02
   9.0332000e-02
   8.2702600e-02
   6.6528300e-02
   8.3007800e-02
   8.6669900e-02
   9.0026900e-02
   8.3923300e-02
   8.7280300e-02
   9.2163100e-02
   8.0871600e-02
   8.5449200e-02
   9.9792500e-02
   6.8969700e-02
   8.0871600e-02
   6.3171400e-02
   5.3100600e-02
   8.0566400e-02
   1.0406500e-01
   9.7045900e-02
   9.8877000e-02
   1.1047400e-01
   1.0803200e-01
   9.2773400e-02
   8.3007800e-02
   1.0833700e-01
   1.0650600e-01
   9.5825200e-02
   9.2163100e-02
   9.9792500e-02
   9.9182100e-02
   9.2163100e-02
   1.0711700e-01
   1.3793900e-01
   1.5411400e-01
   1.4465300e-01
   1.1230500e-01
   6.6528300e-02
   7.4768100e-02
   8.6059600e-02
   8.7280300e-02
   9.0026900e-02
   1.0314900e-01
   1.2176500e-01
   1.2695300e-01
   1.4282200e-01
   1.4251700e-01
   1.4862100e-01
   1.4892600e-01
   1.2420700e-01
   1.4038100e-01
   1.5594500e-01
   1.3977100e-01
   1.4495800e-01
   1.4770500e-01
   1.3366700e-01
   1.2542700e-01
   1.2603800e-01
   1.3763400e-01
   1.3000500e-01
   1.4221200e-01
   1.3488800e-01
   9.2468300e-02
   7.7209500e-02
   9.3383800e-02
   9.4299300e-02
   7.6599100e-02
   7.4768100e-02
   9.6740700e-02
   7.3547400e-02
   4.9438500e-02
   6.5612800e-02
   7.9650900e-02
   6.3476600e-02
   4.6997100e-02
   5.3710900e-02
   5.6762700e-02
   6.8054200e-02
   8.2092300e-02
   8.2702600e-02
   8.8501000e-02
   9.2163100e-02
   8.9721700e-02
   7.1716300e-02
   8.3313000e-02
   1.0528600e-01
   1.0620100e-01
   7.5683600e-02
   6.4392100e-02
   7.4157700e-02
   6.4392100e-02
   7.7209500e-02
   4.9133300e-02
   3.4790000e-02
   4.1809100e-02
   5.0659200e-02
   5.7678200e-02
   6.5918000e-02
   8.4533700e-02
   9.1247600e-02
   9.2468300e-02
   8.9111300e-02
   7.8125000e-02
   3.6621100e-02
   3.8452100e-02
   5.7067900e-02
   3.9978000e-02
   3.9062500e-02
   4.5471200e-02
   3.9367700e-02
   6.8969700e-02
   1.3031000e-01
   1.8188500e-01
   2.5207500e-01
   3.2318100e-01
   3.9032000e-01
   4.3975800e-01
   4.6936000e-01
   4.9102800e-01
   4.6081500e-01
   3.9886500e-01
   3.3599900e-01
   2.7587900e-01
   1.9714400e-01
   1.3824500e-01
   8.3007800e-02
  -1.4343300e-02
  -1.1077900e-01
  -1.2146000e-01
  -6.3476600e-02
  -1.3122600e-02
   3.5400400e-02
   5.8898900e-02
   7.8125000e-02
   1.0467500e-01
   1.2970000e-01
   1.3336200e-01
   1.4801000e-01
   1.3427700e-01
   1.3336200e-01
   1.1932400e-01
   1.2786900e-01
   1.2420700e-01
   1.1322000e-01
   1.3153100e-01
   1.4312700e-01
   1.3824500e-01
   1.2115500e-01
   1.3183600e-01
   1.4556900e-01
   1.5533400e-01
   1.4526400e-01
   1.0345500e-01
   1.0650600e-01
   1.3275100e-01
   1.2695300e-01
   1.3214100e-01
   1.3214100e-01
   1.2786900e-01
   1.2634300e-01
   1.2390100e-01
   1.3000500e-01
   1.5808100e-01
   1.6204800e-01
   1.4556900e-01
   1.3458300e-01
   1.3092000e-01
   1.3824500e-01
   1.5686000e-01
   1.5045200e-01
   1.3855000e-01
   1.4587400e-01
   1.6479500e-01
   1.4801000e-01
   1.6235400e-01
   1.6265900e-01
   1.6204800e-01
   1.5777600e-01
   1.6082800e-01
   1.5686000e-01
   1.6479500e-01
   1.8341100e-01
   2.1209700e-01
   1.9500700e-01
   1.5838600e-01
   1.4007600e-01
   1.5869100e-01
   1.6876200e-01
   1.7974900e-01
   1.7700200e-01
   1.8096900e-01
   1.8951400e-01
   1.8554700e-01
   1.8585200e-01
   2.0996100e-01
   2.1667500e-01
   2.2399900e-01
   2.3468000e-01
   2.3376500e-01
   2.0965600e-01
   2.1118200e-01
   1.8615700e-01
   1.6387900e-01
   1.9134500e-01
   2.0904500e-01
   2.2125200e-01
   2.3010300e-01
   2.3620600e-01
   2.4566700e-01
   2.5421100e-01
   2.5970500e-01
   2.6977500e-01
   2.5268600e-01
   2.5604200e-01
   2.7801500e-01
   2.4688700e-01
   2.1545400e-01
   2.4292000e-01
   2.6977500e-01
   2.8625500e-01
   2.8381300e-01
   2.9968300e-01
   2.8533900e-01
   2.7801500e-01
   2.7740500e-01
   2.7496300e-01
   3.0578600e-01
   3.2074000e-01
   3.2104500e-01
   3.2226600e-01
   3.2806400e-01
   3.3477800e-01
   3.5553000e-01
   3.7292500e-01
   3.4362800e-01
   3.2531700e-01
   3.2714800e-01
   3.3050500e-01
   3.4973100e-01
   3.6041300e-01
   3.6529500e-01
   3.7353500e-01
   3.8055400e-01
   3.7567100e-01
   3.8909900e-01
   4.1351300e-01
   4.0710400e-01
   4.0222200e-01
   3.4881600e-01
   3.4973100e-01
   3.7292500e-01
   3.7841800e-01
   3.6834700e-01
   3.5522500e-01
   3.5644500e-01
   3.7017800e-01
   3.6407500e-01
   3.4973100e-01
   3.7078900e-01
   3.3477800e-01
   3.4271200e-01
   3.1372100e-01
   3.1097400e-01
   2.8839100e-01
   2.9083300e-01
   2.8106700e-01
   2.5299100e-01
   2.1667500e-01
   2.1240200e-01
   2.0477300e-01
   2.0813000e-01
   2.1087600e-01
   1.8310500e-01
   1.4648400e-01
   1.6326900e-01
   1.7700200e-01
   1.4312700e-01
   1.0894800e-01
   1.1535600e-01
   1.2634300e-01
   1.1474600e-01
   1.1383100e-01
   1.1505100e-01
   1.1535600e-01
   1.0650600e-01
   1.1352500e-01
   1.0559100e-01
   1.0650600e-01
   9.6435500e-02
   9.3383800e-02
   8.4533700e-02
   9.3994100e-02
   8.8195800e-02
   8.1481900e-02
   9.1857900e-02
   1.0711700e-01
   1.0620100e-01
   8.9416500e-02
   8.1787100e-02
   9.2773400e-02
   9.5520000e-02
   9.3689000e-02
   7.7819800e-02
   6.1035200e-02
   6.6223100e-02
   8.9416500e-02
   8.6975100e-02
   8.0566400e-02
   8.8806200e-02
   9.0332000e-02
   9.9792500e-02
   1.1383100e-01
   9.9487300e-02
   9.9487300e-02
   1.0223400e-01
   1.1200000e-01
   1.0223400e-01
   1.0986300e-01
   7.8125000e-02
   7.9956100e-02
   7.3852500e-02
   9.3689000e-02
   8.6669900e-02
   8.8806200e-02
   1.1108400e-01
   1.1718800e-01
   1.0528600e-01
   9.8877000e-02
   7.7209500e-02
   6.9885300e-02
   7.5378400e-02
   7.7819800e-02
   9.4604500e-02
   9.1552700e-02
   9.3994100e-02
   1.0192900e-01
   1.0528600e-01
   9.9792500e-02
   1.0833700e-01
   1.0498000e-01
   7.6904300e-02
   8.3618200e-02
   9.9487300e-02
   7.9650900e-02
   8.4838900e-02
   8.6975100e-02
   8.5144000e-02
   7.4157700e-02
   8.0871600e-02
   9.6740700e-02
   9.3383800e-02
   9.2773400e-02
   8.9416500e-02
   8.2397500e-02
   7.5073200e-02
   8.6975100e-02
   1.0101300e-01
   9.7351100e-02
   9.6740700e-02
   9.7045900e-02
   1.0864300e-01
   1.1047400e-01
   7.1411100e-02
   6.1645500e-02
   7.4157700e-02
   8.8806200e-02
   7.3852500e-02
   7.0190400e-02
   9.1857900e-02
   9.6435500e-02
   7.0800800e-02
   5.5236800e-02
   7.4157700e-02
   8.1176800e-02
   9.9792500e-02
   1.2237500e-01
   1.0314900e-01
   9.0332000e-02
   3.3569300e-02
   3.2653800e-02
   5.6457500e-02
   4.9133300e-02
   5.4931600e-02
   6.0730000e-02
   7.2937000e-02
   8.5449200e-02
   6.4086900e-02
   6.3781700e-02
   8.9416500e-02
   1.0559100e-01
   8.5754400e-02
   5.7983400e-02
   4.8828100e-02
   6.1950700e-02
   6.0119600e-02
   5.7983400e-02
   7.5683600e-02
   6.0730000e-02
   5.0659200e-02
   5.5847200e-02
   6.0424800e-02
   6.9274900e-02
   7.5073200e-02
   7.8125000e-02
   7.8430200e-02
   8.2702600e-02
   8.1176800e-02
   7.5683600e-02
   5.2795400e-02
   6.1035200e-02
   4.8217800e-02
   5.6762700e-02
   6.4697300e-02
   6.4697300e-02
   5.4626500e-02
   6.1950700e-02
   6.1035200e-02
   6.9580100e-02
   9.2773400e-02
   7.6293900e-02
   6.1340300e-02
   6.0424800e-02
   5.7678200e-02
   4.8522900e-02
   4.3029800e-02
   2.8076200e-02
   3.9978000e-02
   5.3710900e-02
   5.3405800e-02
   6.4697300e-02
   7.3852500e-02
   7.3242200e-02
   8.4228500e-02
   1.1138900e-01
   9.2773400e-02
   9.3689000e-02
   6.8054200e-02
  -1.6174300e-02
   5.7983400e-03
   3.3264200e-02
   4.6691900e-02
   5.7678200e-02
   6.6223100e-02
   5.0659200e-02
   4.2114300e-02
   5.0048800e-02
   5.9509300e-02
   6.4392100e-02
   8.1176800e-02
   8.1176800e-02
   6.2561000e-02
   6.4086900e-02
   7.1106000e-02
   4.7912600e-02
   3.1127900e-02
   5.1269500e-02
   5.4321300e-02
   5.8288600e-02
   5.0659200e-02
   3.1433100e-02
   4.7912600e-02
   6.2255900e-02
   7.9956100e-02
   7.5378400e-02
   8.7890600e-02
   9.0637200e-02
   2.0446800e-02
   1.7700200e-02
   1.9226100e-02
   3.4790000e-02
   4.0283200e-02
   4.1503900e-02
   3.9978000e-02
   5.4016100e-02
   5.6457500e-02
   6.5307600e-02
   5.5542000e-02
   3.7536600e-02
   5.0354000e-02
   6.0730000e-02
   5.0964400e-02
   6.2561000e-02
   5.3710900e-02
   4.2114300e-02
   4.7302200e-02
   3.6010700e-02
   3.9672900e-02
   5.3100600e-02
   5.7373000e-02
   6.7749000e-02
   8.4228500e-02
   4.6997100e-02
   1.9226100e-02
   7.9345700e-03
   3.2959000e-02
   4.6691900e-02
   4.9438500e-02
   3.2043500e-02
   6.0424800e-02
   4.9743700e-02
   3.2959000e-02
   1.8005400e-02
   2.0446800e-02
   3.2348600e-02
   3.8757300e-02
   4.6386700e-02
   6.4697300e-02
   4.6691900e-02
   2.3498500e-02
   4.6691900e-02
   7.0190400e-03
   2.4108900e-02
   3.2959000e-02
   4.0283200e-02
   5.2795400e-02
   5.0964400e-02
   5.9509300e-02
   5.5542000e-02
   5.2490200e-02
   5.9204100e-02
   5.6762700e-02
   7.0190400e-02
   6.5612800e-02
   4.9133300e-02
   5.9509300e-02
   4.8217800e-02
   6.1035200e-02
   8.4228500e-02
   9.2773400e-02
   8.7280300e-02
   5.2490200e-02
   3.7841800e-02
   4.0588400e-02
   6.2255900e-02
   7.2937000e-02
   8.1481900e-02
   6.1035200e-02
   6.2561000e-02
   8.7280300e-02
   9.6435500e-02
   9.9792500e-02
   7.7209500e-02
   6.9274900e-02
   7.1411100e-02
   1.1108400e-01
   1.0131800e-01
   9.5214800e-02
   9.6740700e-02
   7.9956100e-02
   7.7209500e-02
   5.6152300e-02
   4.7607400e-02
   3.6010700e-02
   3.2653800e-02
   2.8991700e-02
   1.6479500e-02
   2.2583000e-02
   3.9672900e-02
   2.8381300e-02
   1.7089800e-02
   2.5939900e-02
   4.5471200e-02
   2.3803700e-02
  -5.1879900e-03
  -6.7138700e-03
  -1.2207000e-02
   6.7138700e-03
  -6.1035200e-03
   3.0517600e-04
   1.4953600e-02
   2.1057100e-02
   2.1362300e-02
   4.1809100e-02
   3.2043500e-02
   1.0376000e-02
   5.4931600e-03
   1.8310500e-02
   8.5449200e-03
   2.5634800e-02
   1.8310500e-02
   3.6621100e-03
   1.2817400e-02
   2.8686500e-02
   2.6550300e-02
   9.1552700e-04
   1.3732900e-02
   2.9296900e-02
   7.3242200e-03
  -6.1035200e-04
  -9.7656300e-03
   2.1362300e-03
   1.7700200e-02
   3.5400400e-02
   2.5329600e-02
  -5.4931600e-03
   1.3732900e-02
  -5.3405800e-02
  -5.3100600e-02
  -1.9836400e-02
  -3.6621100e-03
   1.2817400e-02
   4.8522900e-02
   7.8735400e-02
   1.4282200e-01
   2.5207500e-01
   2.9998800e-01
   3.7139900e-01
   3.7750200e-01
   4.2450000e-01
   4.1351300e-01
   3.7078900e-01
   3.3020000e-01
   2.5238000e-01
   1.8646200e-01
   1.6571000e-01
   9.8877000e-02
  -4.2419400e-02
  -1.3977100e-01
  -1.6998300e-01
  -1.4556900e-01
  -1.2085000e-01
  -6.1340300e-02
  -6.1035200e-03
   1.4343300e-02
   2.3803700e-02
   2.7160600e-02
   3.9062500e-02
   5.9204100e-02
   8.7890600e-02
   5.3100600e-02
   5.0659200e-02
   5.9814500e-02
   5.7983400e-02
   6.1950700e-02
   6.8359400e-02
   4.6081500e-02
   6.1645500e-02
   6.5002400e-02
   6.7138700e-02
   7.1106000e-02
   6.5307600e-02
   7.7209500e-02
   9.9792500e-02
   9.2163100e-02
   8.0871600e-02
   4.0588400e-02
   2.6855500e-02
   3.4484900e-02
   4.9133300e-02
   5.9509300e-02
   6.6528300e-02
   6.9885300e-02
   7.0190400e-02
   6.6223100e-02
   8.0566400e-02
   8.9111300e-02
   8.3007800e-02
   7.8735400e-02
   8.2397500e-02
   8.9721700e-02
   1.0314900e-01
   7.9956100e-02
   7.0495600e-02
   8.3618200e-02
   1.0101300e-01
   1.0040300e-01
   9.9487300e-02
   9.5520000e-02
   1.0009800e-01
   1.1322000e-01
   1.1749300e-01
   8.7890600e-02
   6.8359400e-02
   7.9956100e-02
   8.9111300e-02
   9.9792500e-02
   1.2664800e-01
   1.4709500e-01
   1.1047400e-01
   1.1657700e-01
   1.2115500e-01
   1.1779800e-01
   1.0681200e-01
   9.9792500e-02
   1.1138900e-01
   1.1261000e-01
   1.2847900e-01
   1.4068600e-01
   1.4007600e-01
   1.3885500e-01
   1.4923100e-01
   1.5899700e-01
   1.5960700e-01
   1.4770500e-01
   1.3519300e-01
   1.5289300e-01
   1.3793900e-01
   1.3519300e-01
   1.5564000e-01
   1.6082800e-01
   1.5960700e-01
   1.7425500e-01
   1.7730700e-01
   1.8066400e-01
   1.9622800e-01
   2.1087600e-01
   1.9683800e-01
   1.9622800e-01
   1.9073500e-01
   1.9714400e-01
   2.1057100e-01
   2.0629900e-01
   2.2491500e-01
   2.1423300e-01
   2.1209700e-01
   2.4017300e-01
   2.3986800e-01
   2.2613500e-01
   2.3559600e-01
   2.5573700e-01
   2.6580800e-01
   2.5817900e-01
   2.3345900e-01
   2.3376500e-01
   2.4169900e-01
   2.7618400e-01
   2.9296900e-01
   2.9754600e-01
   2.8656000e-01
   2.8900100e-01
   3.1402600e-01
   3.0792200e-01
   2.8930700e-01
   2.5451700e-01
   2.6794400e-01
   3.0242900e-01
   3.0883800e-01
   2.8961200e-01
   2.9785200e-01
   3.1036400e-01
   2.9998800e-01
   3.0456500e-01
   3.1463600e-01
   3.0975300e-01
   3.0273400e-01
   3.2196000e-01
   2.9052700e-01
   2.7648900e-01
   2.7465800e-01
   2.7282700e-01
   2.6916500e-01
   2.5299100e-01
   2.4566700e-01
   2.4902300e-01
   2.1514900e-01
   2.1057100e-01
   1.9256600e-01
   1.5167200e-01
   1.5289300e-01
   1.3488800e-01
   1.1505100e-01
   1.1352500e-01
   1.0284400e-01
   1.0192900e-01
   9.1247600e-02
   1.2634300e-01
   6.3781700e-02
   2.4414100e-02
   5.0354000e-02
   5.4321300e-02
   7.1716300e-02
   5.9509300e-02
   4.9133300e-02
   2.8381300e-02
   2.4719200e-02
   1.1596700e-02
   2.8381300e-02
   2.3803700e-02
   6.1035200e-03
   2.2888200e-02
   3.9672900e-02
   3.7231400e-02
   6.7138700e-03
  -2.5939900e-02
  -1.0376000e-02
   2.8076200e-02
   6.7138700e-03
   3.3569300e-03
   1.0376000e-02
   8.8501000e-03
   4.2724600e-03
   8.5449200e-03
   9.7656300e-03
   8.5449200e-03
   1.0070800e-02
   2.4719200e-02
   2.5939900e-02
   4.8828100e-03
   2.3193400e-02
   3.3264200e-02
   3.5400400e-02
   1.9226100e-02
   3.9672900e-03
  -2.7465800e-03
   5.1879900e-03
  -2.4414100e-02
  -2.1362300e-02
  -1.6479500e-02
  -3.9672900e-03
   2.2888200e-02
   2.1362300e-02
   2.4719200e-02
   2.7160600e-02
   2.9907200e-02
   3.9978000e-02
   3.8147000e-02
   3.2959000e-02
  -3.9672900e-03
   2.1362300e-03
   1.2512200e-02
  -2.6855500e-02
   2.1362300e-03
   1.2817400e-02
   6.1035200e-03
   3.0822800e-02
   4.8217800e-02
   6.7138700e-03
  -1.8615700e-02
   3.3569300e-03
   3.3569300e-03
   9.7656300e-03
   2.1362300e-02
   3.1127900e-02
   1.9531300e-02
   1.2207000e-02
   3.1127900e-02
  -1.4343300e-02
  -1.5258800e-02
   1.5564000e-02
   1.9836400e-02
   1.5564000e-02
   0.0000000e+00
  -6.4086900e-03
  -6.4086900e-03
  -8.8501000e-03
  -1.3427700e-02
   3.9672900e-03
   1.8005400e-02
   1.9226100e-02
   1.4648400e-02
   8.5449200e-03
  -5.1879900e-03
  -1.8005400e-02
  -1.9531300e-02
  -4.5776400e-03
  -2.1362300e-03
  -1.7089800e-02
  -1.4038100e-02
  -5.7983400e-03
  -4.8828100e-03
  -4.2724600e-03
  -4.2724600e-03
  -2.7465800e-03
   1.2207000e-03
  -3.0517600e-04
  -1.8310500e-03
   9.1552700e-03
   4.8828100e-03
  -2.7465800e-03
  -3.6010700e-02
  -2.4414100e-02
  -2.0141600e-02
  -1.2512200e-02
  -7.6293900e-03
  -7.3242200e-03
  -3.6621100e-03
   1.1596700e-02
  -1.5258800e-03
  -1.3122600e-02
  -3.1433100e-02
  -1.3732900e-02
   1.5258800e-03
  -1.5258800e-03
  -2.6855500e-02
  -2.6855500e-02
  -7.9345700e-03
  -1.9226100e-02
  -4.5471200e-02
  -3.9062500e-02
  -1.0681200e-02
   5.1879900e-03
  -5.1879900e-03
  -2.6245100e-02
  -3.3569300e-02
  -2.3193400e-02
  -1.2207000e-03
   5.1879900e-03
  -1.6479500e-02
  -2.1972700e-02
  -2.9602100e-02
  -3.1433100e-02
  -4.8828100e-03
   5.7983400e-03
   8.8501000e-03
  -5.1879900e-03
  -3.3569300e-02
  -5.5847200e-02
  -4.3640100e-02
  -1.1291500e-02
  -1.4038100e-02
  -2.1057100e-02
  -2.5329600e-02
  -1.6784700e-02
   4.2724600e-03
  -3.5705600e-02
  -3.8757300e-02
  -3.8452100e-02
  -3.4179700e-02
  -1.9226100e-02
  -1.2207000e-02
  -3.3264200e-02
  -1.1291500e-02
   2.1362300e-03
  -3.6621100e-03
   3.6621100e-03
  -7.3242200e-03
  -3.3874500e-02
  -5.7067900e-02
  -3.6621100e-02
  -4.1503900e-02
  -2.7771000e-02
  -1.6479500e-02
  -1.5564000e-02
  -2.7771000e-02
  -3.9062500e-02
  -4.6386700e-02
  -2.8381300e-02
  -2.4108900e-02
  -1.9836400e-02
  -5.1879900e-03
  -1.4648400e-02
  -2.4108900e-02
  -2.9602100e-02
  -3.5400400e-02
  -8.5449200e-03
  -2.8076200e-02
  -3.0822800e-02
  -3.5095200e-02
  -1.9836400e-02
  -2.3193400e-02
  -2.8686500e-02
  -1.6784700e-02
  -2.5329600e-02
  -3.2959000e-02
  -3.6926300e-02
  -1.5869100e-02
  -8.2397500e-03
  -1.4343300e-02
  -1.1291500e-02
  -5.4931600e-03
  -1.9836400e-02
  -2.4414100e-02
   3.9672900e-03
   1.0681200e-02
  -5.4626500e-02
  -5.9509300e-02
  -3.7536600e-02
  -4.2419400e-02
  -3.6010700e-02
  -2.1972700e-02
  -1.8310500e-03
  -1.4953600e-02
  -3.4790000e-02
  -1.7395000e-02
  -3.5705600e-02
  -3.0517600e-02
  -1.0070800e-02
  -1.6479500e-02
  -4.2724600e-03
  -2.0446800e-02
  -3.6621100e-02
  -1.8920900e-02
  -2.7465800e-03
  -2.2888200e-02
  -2.0141600e-02
  -3.7841800e-02
  -2.6550300e-02
  -2.4719200e-02
  -2.9296900e-02
  -3.2653800e-02
  -2.8991700e-02
  -3.9672900e-03
   2.1057100e-02
  -4.2724600e-03
  -4.3029800e-02
  -2.7465800e-02
  -3.6621100e-02
  -5.8593800e-02
  -5.8593800e-02
  -3.8147000e-02
  -1.7395000e-02
   3.6621100e-03
   2.4414100e-03
  -9.1552700e-03
  -3.4790000e-02
  -3.6926300e-02
  -2.1057100e-02
  -1.1901900e-02
   0.0000000e+00
  -4.8828100e-03
  -2.7465800e-02
  -4.2724600e-03
   2.3498500e-02
   1.7395000e-02
  -3.6926300e-02
  -7.9040500e-02
  -4.7912600e-02
  -4.6997100e-02
  -3.6315900e-02
  -2.1667500e-02
  -2.1057100e-02
  -1.7089800e-02
  -6.1035200e-03
  -1.1596700e-02
   1.1291500e-02
  -1.8310500e-03
  -3.6621100e-02
  -4.1503900e-02
  -4.0588400e-02
  -1.5258800e-03
   9.1552700e-03
   1.7395000e-02
  -2.8076200e-02
  -3.9978000e-02
  -1.8615700e-02
  -1.9531300e-02
  -1.9226100e-02
  -3.9672900e-03
   1.8310500e-03
   2.3803700e-02
   2.0446800e-02
   3.2959000e-02
   2.0752000e-02
   9.1552700e-03
   0.0000000e+00
   1.9836400e-02
   2.9602100e-02
   3.8147000e-02
   2.8686500e-02
   2.1057100e-02
   3.7231400e-02
   3.9978000e-02
   5.1574700e-02
   4.5166000e-02
   4.2724600e-03
   7.0190400e-03
   3.3874500e-02
   2.1667500e-02
   2.0446800e-02
   3.6621100e-02
   2.5329600e-02
   4.4555700e-02
   4.0893600e-02
   3.2043500e-02
   3.4179700e-02
   8.2397500e-03
  -1.8615700e-02
  -3.5705600e-02
  -5.8898900e-02
  -4.1198700e-02
  -2.4108900e-02
  -2.2583000e-02
  -2.2583000e-02
  -3.2043500e-02
  -3.3569300e-02
  -2.4414100e-02
  -1.4648400e-02
  -2.3803700e-02
  -3.2959000e-02
  -2.0141600e-02
  -6.4086900e-03
  -9.1552700e-04
  -1.1596700e-02
  -2.7465800e-02
  -3.5705600e-02
  -4.1198700e-02
  -5.0048800e-02
  -5.5236800e-02
  -4.3640100e-02
  -3.2959000e-02
  -2.6550300e-02
  -1.8615700e-02
   0.0000000e+00
  -4.6081500e-02
  -3.9978000e-02
  -4.3335000e-02
  -4.4555700e-02
  -2.9907200e-02
  -8.8501000e-03
   8.5449200e-03
  -1.6174300e-02
  -4.4555700e-02
  -6.2561000e-02
  -7.9040500e-02
  -6.1645500e-02
  -3.2959000e-02
  -2.5939900e-02
  -2.8076200e-02
  -3.9978000e-02
  -3.6010700e-02
  -4.0588400e-02
  -5.1879900e-02
  -5.9814500e-02
  -7.2631800e-02
  -5.4016100e-02
  -6.1035200e-04
   5.0048800e-02
   1.1474600e-01
   1.9866900e-01
   2.8503400e-01
   3.5522500e-01
   3.8543700e-01
   4.2358400e-01
   3.8085900e-01
   3.1585700e-01
   2.7343800e-01
   2.0446800e-01
   1.6326900e-01
   1.2298600e-01
   2.4108900e-02
  -7.6293900e-02
  -1.8310500e-01
  -2.2949200e-01
  -1.9836400e-01
  -1.4526400e-01
  -7.8125000e-02
  -3.1738300e-02
  -1.7395000e-02
  -3.6621100e-03
  -3.8147000e-02
  -2.3498500e-02
   1.3122600e-02
   3.7841800e-02
   3.9672900e-02
   5.0659200e-02
   3.5400400e-02
   4.2724600e-02
   7.6904300e-02
   3.1433100e-02
   5.0964400e-02
   6.2561000e-02
   2.4108900e-02
   1.6784700e-02
   2.9907200e-02
   4.8828100e-02
   1.2817400e-02
   1.2207000e-02
   3.0517600e-02
   2.8991700e-02
   4.4860800e-02
   4.7302200e-02
   3.4484900e-02
   5.1269500e-02
   4.0893600e-02
   2.9296900e-02
   4.1198700e-02
   6.2561000e-02
   5.7373000e-02
   7.5073200e-02
   6.8054200e-02
   3.6315900e-02
   4.9438500e-02
   4.6386700e-02
   4.8217800e-02
   4.6386700e-02
   5.7067900e-02
   4.8522900e-02
   5.2795400e-02
   6.3171400e-02
   7.7819800e-02
   7.9650900e-02
   7.9650900e-02
   8.1176800e-02
   7.9650900e-02
   7.5073200e-02
   7.8735400e-02
   1.0864300e-01
   1.1444100e-01
   1.0925300e-01
   1.1169400e-01
   8.5144000e-02
   5.7983400e-02
   6.8664600e-02
   8.4228500e-02
   9.1552700e-02
   9.4604500e-02
   9.5520000e-02
   1.0528600e-01
   1.1077900e-01
   1.1016800e-01
   1.2603800e-01
   1.2207000e-01
   1.1230500e-01
   1.1627200e-01
   1.1016800e-01
   1.2878400e-01
   1.1749300e-01
   1.1138900e-01
   1.3305700e-01
   1.5289300e-01
   1.6540500e-01
   1.6540500e-01
   1.7181400e-01
   1.6906700e-01
   1.6754200e-01
   1.8310500e-01
   1.8554700e-01
   1.3336200e-01
   1.5014600e-01
   1.7059300e-01
   1.6418500e-01
   1.6540500e-01
   1.8127400e-01
   1.7578100e-01
   1.9378700e-01
   2.2216800e-01
   2.0904500e-01
   1.9500700e-01
   2.0599400e-01
   2.3162800e-01
   2.5878900e-01
   2.5329600e-01
   2.4719200e-01
   1.9928000e-01
   1.9989000e-01
   2.2094700e-01
   2.4597200e-01
   2.5360100e-01
   2.6947000e-01
   2.8289800e-01
   2.7343800e-01
   2.7191200e-01
   2.6886000e-01
   2.7404800e-01
   2.8228800e-01
   2.8167700e-01
   3.0304000e-01
   2.8320300e-01
   2.7069100e-01
   2.8015100e-01
   2.7862500e-01
   3.0517600e-01
   3.1005900e-01
   3.1524700e-01
   3.0304000e-01
   2.8137200e-01
   2.9083300e-01
   2.9541000e-01
   3.0578600e-01
   3.1829800e-01
   3.0304000e-01
   2.7343800e-01
   2.7160600e-01
   2.6367200e-01
   2.4444600e-01
   2.5085400e-01
   2.5787400e-01
   2.2064200e-01
   2.0172100e-01
   2.0599400e-01
   1.9470200e-01
   1.9836400e-01
   1.5686000e-01
   1.4465300e-01
   1.3275100e-01
   1.1322000e-01
   1.0162400e-01
   9.8266600e-02
   9.2468300e-02
   8.9721700e-02
   9.0332000e-02
   8.7280300e-02
   8.7585400e-02
   9.1552700e-02
   9.0942400e-02
   5.4321300e-02
   1.0681200e-02
  -2.7465800e-03
   2.4414100e-03
   2.0141600e-02
   2.9907200e-02
   3.8757300e-02
   4.4555700e-02
   4.8217800e-02
   2.0141600e-02
   1.2512200e-02
   2.9296900e-02
   2.1667500e-02
   1.4648400e-02
   3.1738300e-02
   2.0446800e-02
   7.9345700e-03
   8.2397500e-03
  -5.7983400e-03
   3.9672900e-03
   3.1127900e-02
   2.0141600e-02
   1.0986300e-02
   9.7656300e-03
   1.6479500e-02
   2.1057100e-02
   2.9602100e-02
   4.2114300e-02
   2.5939900e-02
   1.4648400e-02
   2.5329600e-02
   6.7749000e-02
   7.1716300e-02
   3.4484900e-02
  -1.5258800e-02
  -1.7089800e-02
   1.2207000e-03
   1.6174300e-02
   7.0190400e-03
   1.5258800e-02
   2.9602100e-02
   2.6855500e-02
   1.6784700e-02
   1.8310500e-02
   3.8147000e-02
   3.2653800e-02
   5.4321300e-02
   6.8664600e-02
   5.1879900e-02
   5.9814500e-02
   1.0681200e-02
  -1.0070800e-02
  -2.1362300e-03
   9.7656300e-03
   2.1972700e-02
   2.8076200e-02
   3.8757300e-02
   4.0588400e-02
   2.6855500e-02
   8.8501000e-03
   2.4108900e-02
   4.1503900e-02
   1.8005400e-02
   8.2397500e-03
   2.8991700e-02
   2.3498500e-02
   2.6855500e-02
   2.4108900e-02
   4.0283200e-02
   4.5471200e-02
   4.0588400e-02
   2.3193400e-02
   1.7089800e-02
   1.3732900e-02
   1.5258800e-02
   1.8005400e-02
   1.8615700e-02
   2.7465800e-02
   3.4790000e-02
   1.7700200e-02
   9.7656300e-03
   1.7089800e-02
   2.3803700e-02
   3.3264200e-02
   4.3335000e-02
   4.4860800e-02
   4.3335000e-02
  -5.1879900e-03
  -3.9672900e-02
  -8.8501000e-03
  -2.4414100e-03
   8.8501000e-03
   2.0141600e-02
   1.2512200e-02
   2.8991700e-02
   2.5939900e-02
   3.6621100e-02
   2.7465800e-02
   1.7089800e-02
   1.0376000e-02
  -4.8828100e-03
   9.7656300e-03
  -1.9531300e-02
  -3.4179700e-02
  -3.3569300e-03
   2.1362300e-03
   8.8501000e-03
   1.5258800e-02
   1.0986300e-02
   3.0517600e-04
   5.1879900e-03
   1.1596700e-02
   1.5258800e-03
   4.8828100e-03
   1.7089800e-02
   2.3498500e-02
   4.3335000e-02
   5.2185100e-02
   8.5449200e-03
   1.8920900e-02
  -1.0681200e-02
   4.2724600e-03
  -3.0517600e-03
  -1.5258800e-03
   9.1552700e-04
   9.7656300e-03
   3.0212400e-02
   1.8310500e-02
   2.9296900e-02
   5.1879900e-03
   1.6174300e-02
   2.9907200e-02
  -1.3122600e-02
  -1.7089800e-02
  -1.0376000e-02
  -1.1291500e-02
  -1.5258800e-03
   0.0000000e+00
  -3.0517600e-04
  -1.5258800e-03
   7.9345700e-03
   1.9226100e-02
   3.7231400e-02
   2.5329600e-02
   2.0752000e-02
  -1.5564000e-02
  -1.6479500e-02
  -9.1552700e-03
   7.0190400e-03
   2.1972700e-02
   1.2817400e-02
   1.0376000e-02
   1.3427700e-02
   1.6479500e-02
   1.3427700e-02
  -3.0517600e-03
   5.1879900e-03
   1.3732900e-02
   1.4343300e-02
   2.1972700e-02
   2.0141600e-02
   3.0517600e-04
   6.1035200e-04
   3.9672900e-03
  -4.5776400e-03
  -1.0681200e-02
  -7.0190400e-03
   5.7983400e-03
   1.7089800e-02
  -9.1552700e-04
  -3.9672900e-03
   3.3569300e-03
   1.8310500e-02
   2.3498500e-02
   7.6293900e-03
   4.5776400e-03
  -1.3122600e-02
   6.1035200e-04
   2.2888200e-02
   8.5449200e-03
  -3.0517600e-04
   1.2207000e-02
   1.4953600e-02
   3.0517600e-04
   8.2397500e-03
   2.7160600e-02
   4.5471200e-02
   5.4931600e-02
   5.4931600e-03
   3.6621100e-03
   2.9907200e-02
   2.0141600e-02
  -3.0517600e-04
  -2.8076200e-02
  -2.8686500e-02
  -1.4648400e-02
   1.8310500e-03
   6.7138700e-03
  -2.4414100e-03
   3.9672900e-03
   8.2397500e-03
   2.3193400e-02
   1.5869100e-02
   5.1879900e-03
   2.5329600e-02
   2.8686500e-02
   3.7841800e-02
   1.4038100e-02
   2.7465800e-03
   1.7395000e-02
   2.4414100e-03
  -1.1291500e-02
  -3.6621100e-03
  -4.8828100e-03
   3.0517600e-04
   7.3242200e-03
   8.8501000e-03
   1.2512200e-02
   1.5564000e-02
   1.4648400e-02
   3.0822800e-02
   3.3264200e-02
   3.4179700e-02
   4.8217800e-02
   6.1950700e-02
   3.4790000e-02
   1.4038100e-02
  -2.5024400e-02
  -1.1291500e-02
   7.0190400e-03
   1.6479500e-02
   8.2397500e-03
   4.8828100e-03
   9.4604500e-03
   1.2817400e-02
   7.6293900e-03
   1.1596700e-02
   1.8005400e-02
   5.7983400e-03
   7.0190400e-03
   1.5869100e-02
   2.4719200e-02
   1.4648400e-02
   2.2888200e-02
   2.4414100e-02
   1.8615700e-02
   2.5939900e-02
   4.0588400e-02
   4.1809100e-02
   2.5024400e-02
   1.2207000e-02
   2.1362300e-02
   2.7771000e-02
   2.8076200e-02
   4.6997100e-02
   5.5542000e-02
   7.6293900e-02
   6.8969700e-02
   4.4555700e-02
   3.5095200e-02
   3.6315900e-02
   5.4016100e-02
   5.8898900e-02
   4.0588400e-02
   7.0190400e-02
   1.0864300e-01
   1.0101300e-01
   7.8430200e-02
   5.7067900e-02
   3.9062500e-02
   2.0752000e-02
   5.9204100e-02
   7.2326700e-02
   5.4626500e-02
   6.5307600e-02
   8.0871600e-02
   7.8430200e-02
   6.6223100e-02
   7.3547400e-02
   8.1176800e-02
   7.4462900e-02
   6.8054200e-02
   6.4086900e-02
   3.6621100e-02
   4.8828100e-02
   4.5166000e-02
   3.0517600e-02
   3.4179700e-02
   1.8920900e-02
   1.1596700e-02
   1.0986300e-02
   7.9345700e-03
   1.1596700e-02
   2.2583000e-02
   3.6010700e-02
   4.6691900e-02
   5.0048800e-02
   1.2512200e-02
  -1.6174300e-02
  -1.8310500e-02
  -5.4931600e-03
  -6.7138700e-03
   2.4414100e-03
  -1.6479500e-02
   3.3569300e-03
   1.8005400e-02
   2.4414100e-02
   2.7160600e-02
   1.7395000e-02
  -1.9531300e-02
   8.8501000e-03
  -2.1362300e-03
  -2.1362300e-03
  -2.1362300e-03
   1.0070800e-02
   3.6621100e-03
  -6.1035200e-04
   1.2512200e-02
   1.4038100e-02
   1.2207000e-03
  -6.4086900e-03
   5.1879900e-03
   6.1035200e-04
   2.7465800e-03
   7.6293900e-03
   8.5449200e-03
   2.4414100e-03
   2.4414100e-03
   1.2207000e-02
   1.0986300e-02
   2.3803700e-02
   1.2207000e-02
  -2.4108900e-02
  -3.3874500e-02
  -2.8381300e-02
  -1.1596700e-02
   2.8076200e-02
   7.1411100e-02
   1.1535600e-01
   1.6815200e-01
   2.4108900e-01
   3.5003700e-01
   4.4220000e-01
   4.7851600e-01
   4.6142600e-01
   4.2541500e-01
   3.6987300e-01
   2.6611300e-01
   2.2369400e-01
   2.1881100e-01
   1.5258800e-01
   3.2959000e-02
  -1.0986300e-01
  -2.1759000e-01
  -2.3193400e-01
  -2.2552500e-01
  -1.8341100e-01
  -1.1932400e-01
  -6.0730000e-02
  -5.3405800e-02
  -3.7841800e-02
  -1.2817400e-02
   1.4343300e-02
   3.9367700e-02
   6.6223100e-02
   7.1716300e-02
   6.0424800e-02
   6.2866200e-02
   5.6762700e-02
   5.2490200e-02
   7.2021500e-02
   7.9650900e-02
   7.1716300e-02
   7.2937000e-02
   8.9111300e-02
   9.3078600e-02
   6.9274900e-02
   1.0467500e-01
   7.2937000e-02
   4.6081500e-02
   5.7067900e-02
   9.6130400e-02
   8.8806200e-02
   8.1176800e-02
   8.0261200e-02
   6.3781700e-02
   6.6833500e-02
   7.3242200e-02
   7.8430200e-02
   8.9721700e-02
   8.3313000e-02
   9.6435500e-02
   7.4768100e-02
   9.3689000e-02
   1.0986300e-01
   9.9182100e-02
   8.9721700e-02
   8.2702600e-02
   7.2021500e-02
   8.2092300e-02
   8.7890600e-02
   9.0942400e-02
   1.0009800e-01
   1.0314900e-01
   1.0986300e-01
   1.0589600e-01
   1.1871300e-01
   1.3031000e-01
   1.4831500e-01
   1.4862100e-01
   1.5136700e-01
   1.7150900e-01
   1.3305700e-01
   8.1787100e-02
   1.2634300e-01
   1.2085000e-01
   1.0803200e-01
   1.2237500e-01
   1.2054400e-01
   1.3153100e-01
   1.4221200e-01
   1.5472400e-01
   1.6021700e-01
   1.5655500e-01
   1.4617900e-01
   1.5472400e-01
   1.7334000e-01
   1.7028800e-01
   1.7272900e-01
   1.8310500e-01
   1.7700200e-01
   1.6418500e-01
   1.4099100e-01
   1.6510000e-01
   1.8493700e-01
   1.9592300e-01
   1.8310500e-01
   1.8249500e-01
   1.9561800e-01
   1.9836400e-01
   1.9805900e-01
   2.1118200e-01
   2.0782500e-01
   2.1545400e-01
   2.4078400e-01
   2.3925800e-01
   2.3132300e-01
   2.4322500e-01
   2.5787400e-01
   2.4078400e-01
   2.0996100e-01
   2.1698000e-01
   2.2644000e-01
   2.4261500e-01
   2.5268600e-01
   2.4566700e-01
   2.6184100e-01
   2.7496300e-01
   2.9327400e-01
   2.8350800e-01
   2.7893100e-01
   2.8747600e-01
   2.8442400e-01
   2.9235800e-01
   3.0120800e-01
   3.0975300e-01
   3.2287600e-01
   3.0944800e-01
   2.9602100e-01
   3.0944800e-01
   3.0212400e-01
   3.0761700e-01
   3.0761700e-01
   3.1219500e-01
   3.3538800e-01
   3.0822800e-01
   3.1066900e-01
   3.2806400e-01
   2.9480000e-01
   3.0609100e-01
   2.9052700e-01
   2.9388400e-01
   3.0273400e-01
   3.0120800e-01
   3.0853300e-01
   2.9907200e-01
   2.8198200e-01
   2.7984600e-01
   2.6641800e-01
   2.6397700e-01
   2.4231000e-01
   2.0019500e-01
   1.9744900e-01
   1.8951400e-01
   1.6113300e-01
   1.5411400e-01
   1.4129600e-01
   1.4465300e-01
   1.3916000e-01
   1.3519300e-01
   1.4099100e-01
   1.5014600e-01
   1.2329100e-01
   8.7585400e-02
   8.7890600e-02
   8.7890600e-02
   8.7280300e-02
   7.5378400e-02
   5.4626500e-02
   6.1645500e-02
   5.5236800e-02
   7.2631800e-02
   8.4838900e-02
   4.6386700e-02
   1.7700200e-02
   1.6784700e-02
   2.6245100e-02
   3.0517600e-02
   3.7536600e-02
   3.1433100e-02
   4.3335000e-02
   5.5236800e-02
   6.6223100e-02
   6.6223100e-02
   7.6904300e-02
   3.9672900e-02
   2.8381300e-02
   2.2583000e-02
   4.2419400e-02
   5.4321300e-02
   5.4321300e-02
   4.6691900e-02
   5.4016100e-02
   4.5776400e-02
   6.5002400e-02
   7.1106000e-02
   7.2631800e-02
   6.8054200e-02
   5.4931600e-02
   1.8615700e-02
   1.9226100e-02
   2.7160600e-02
   5.1574700e-02
   4.9743700e-02
   6.9580100e-02
   7.6599100e-02
   6.6528300e-02
   5.2185100e-02
   4.4555700e-02
   2.8686500e-02
   3.0822800e-02
   5.4016100e-02
   3.2959000e-02
   3.8147000e-02
   6.1035200e-02
   6.4392100e-02
   5.3405800e-02
   5.1879900e-02
   3.7841800e-02
   3.6315900e-02
   5.2490200e-02
   6.3476600e-02
   6.2866200e-02
   6.6223100e-02
   9.1552700e-02
   7.7819800e-02
   5.6762700e-02
   4.7607400e-02
   3.9062500e-02
   2.3193400e-02
   2.0752000e-02
   3.1738300e-02
   3.7841800e-02
   5.7373000e-02
   5.6457500e-02
   6.4392100e-02
   4.9133300e-02
   4.3029800e-02
   4.6386700e-02
   4.8522900e-02
   3.8452100e-02
   5.1574700e-02
   3.9367700e-02
   2.5329600e-02
   2.8076200e-02
   3.1127900e-02
   1.3732900e-02
   3.6621100e-02
   5.4321300e-02
   4.3945300e-02
   3.2653800e-02
   6.2866200e-02
   4.3029800e-02
   2.5329600e-02
   5.0659200e-02
   4.7302200e-02
   4.5166000e-02
   6.0119600e-02
   3.7841800e-02
   2.1362300e-03
   6.7138700e-03
   2.4414100e-02
   2.7160600e-02
   3.0517600e-02
   4.3640100e-02
   4.5471200e-02
   5.4931600e-02
   5.8288600e-02
   5.7373000e-02
   3.9062500e-02
   4.3640100e-02
   6.2255900e-02
   4.5471200e-02
   8.8501000e-03
   4.5776400e-03
  -1.5258800e-03
   2.4414100e-03
   1.3732900e-02
   2.7160600e-02
   2.9296900e-02
   3.2348600e-02
   3.5705600e-02
   2.9296900e-02
   2.3193400e-02
   3.6315900e-02
   4.1503900e-02
   4.2114300e-02
   6.1035200e-02
   4.8522900e-02
   3.6010700e-02
   3.6010700e-02
   7.6293900e-03
   6.1035200e-03
   2.2583000e-02
   2.5329600e-02
   1.9226100e-02
   2.6550300e-02
   4.2419400e-02
   6.2866200e-02
   5.5847200e-02
   6.2866200e-02
   5.0659200e-02
   5.4931600e-03
  -8.2397500e-03
   1.8310500e-02
   5.4016100e-02
   5.3100600e-02
   4.2419400e-02
   2.1972700e-02
   9.4604500e-03
   2.9296900e-02
   2.8076200e-02
   1.8005400e-02
   4.5776400e-03
   1.4953600e-02
   3.1127900e-02
   3.6621100e-02
   3.6315900e-02
   2.9296900e-02
   3.7536600e-02
   4.4250500e-02
   6.8054200e-02
   7.2021500e-02
   2.2277800e-02
   9.7656300e-03
   1.2207000e-02
   3.9978000e-02
   4.8217800e-02
   4.9438500e-02
   2.8076200e-02
   2.4414100e-02
   3.7231400e-02
   3.5400400e-02
   3.9672900e-02
   2.0141600e-02
   3.5095200e-02
   2.4414100e-02
   3.1127900e-02
   2.9602100e-02
   1.8920900e-02
   4.1503900e-02
   4.7607400e-02
   4.7912600e-02
   3.4790000e-02
   2.1362300e-02
   1.7700200e-02
  -1.8310500e-03
   2.7465800e-02
   3.8452100e-02
   3.4179700e-02
   2.7160600e-02
   3.4484900e-02
   3.8147000e-02
   5.3405800e-02
   6.9580100e-02
   6.5918000e-02
   6.8359400e-02
   2.1972700e-02
  -5.4931600e-03
   7.9345700e-03
   3.6621100e-02
   3.9672900e-02
   3.6010700e-02
   3.2959000e-02
   4.6691900e-02
   5.7678200e-02
   6.0119600e-02
   6.2866200e-02
   4.7912600e-02
   2.8381300e-02
  -4.2724600e-03
   1.7395000e-02
   1.4343300e-02
   2.0141600e-02
   2.8076200e-02
   4.0893600e-02
   4.0893600e-02
   3.2043500e-02
   3.8452100e-02
   3.1738300e-02
   2.3498500e-02
   3.2043500e-02
   4.3029800e-02
   2.4108900e-02
   4.5776400e-02
   3.9062500e-02
   4.3029800e-02
   4.1198700e-02
   3.9672900e-02
   3.7231400e-02
   3.2959000e-02
   2.5329600e-02
   3.1738300e-02
   3.2653800e-02
   3.6926300e-02
   3.0212400e-02
   2.5329600e-02
   3.8147000e-02
   4.8217800e-02
   3.9978000e-02
   5.2185100e-02
   6.0424800e-02
   4.0588400e-02
   2.6855500e-02
   1.8920900e-02
   5.0048800e-02
   5.7067900e-02
   4.7912600e-02
   3.7231400e-02
   9.1552700e-03
   1.6174300e-02
   4.0893600e-02
   3.6926300e-02
   5.4016100e-02
   5.0354000e-02
   5.2490200e-02
   5.4321300e-02
   5.7067900e-02
   5.3405800e-02
   4.4860800e-02
   4.3945300e-02
   3.7536600e-02
   5.4931600e-02
   6.9274900e-02
   8.3313000e-02
   9.3689000e-02
   7.4462900e-02
   5.2490200e-02
   4.6997100e-02
   4.6386700e-02
   4.7302200e-02
   7.8430200e-02
   9.3994100e-02
   8.7280300e-02
   1.0864300e-01
   9.7961400e-02
   9.2163100e-02
   7.2021500e-02
   9.5520000e-02
   1.0589600e-01
   1.0223400e-01
   8.6059600e-02
   7.4157700e-02
   6.8664600e-02
   9.5825200e-02
   1.1108400e-01
   8.7280300e-02
   6.0424800e-02
   7.4462900e-02
   5.2185100e-02
   3.6621100e-02
   3.6926300e-02
   2.1972700e-02
   2.4414100e-02
   1.8310500e-02
   3.0517600e-03
   2.3498500e-02
   2.6550300e-02
   1.0376000e-02
   1.3122600e-02
   1.9226100e-02
   2.8686500e-02
   3.2043500e-02
   2.9296900e-02
   2.0141600e-02
   2.9602100e-02
   2.5024400e-02
   1.9531300e-02
   2.6855500e-02
   2.3193400e-02
   2.1362300e-02
   2.9602100e-02
   2.2888200e-02
   1.0070800e-02
   1.5564000e-02
   2.3193400e-02
   2.0752000e-02
   2.1667500e-02
   3.1127900e-02
   3.4179700e-02
   2.2277800e-02
   1.8920900e-02
   2.4719200e-02
   2.4719200e-02
   2.8076200e-02
   2.5024400e-02
   1.5258800e-02
   1.3732900e-02
   1.1291500e-02
   2.4108900e-02
   1.9531300e-02
   1.8615700e-02
  -7.0190400e-03
  -3.0517600e-04
   2.8076200e-02
   1.8615700e-02
   1.3122600e-02
  -1.0681200e-02
  -7.0190400e-03
   1.3122600e-02
   5.6152300e-02
   1.0894800e-01
   1.8890400e-01
   2.5695800e-01
   3.1311000e-01
   3.8116500e-01
   4.2663600e-01
   4.2602500e-01
   4.0252700e-01
   3.6346400e-01
   3.1524700e-01
   2.6092500e-01
   1.8951400e-01
   1.5686000e-01
   7.6599100e-02
  -3.9062500e-02
  -1.4068600e-01
  -1.7089800e-01
  -1.5991200e-01
  -1.1718800e-01
  -4.9133300e-02
  -1.8615700e-02
  -1.0986300e-02
   6.4086900e-03
   3.6621100e-02
   4.9743700e-02
   6.5612800e-02
   8.2397500e-02
   8.3618200e-02
   8.9416500e-02
   7.2021500e-02
   9.1857900e-02
   8.6975100e-02
   8.4533700e-02
   8.2702600e-02
   8.9721700e-02
   8.1787100e-02
   9.0026900e-02
   7.5378400e-02
   6.4392100e-02
   7.5073200e-02
   1.0070800e-01
   8.0566400e-02
   4.9743700e-02
   5.5236800e-02
   6.2866200e-02
   7.7819800e-02
   7.2021500e-02
   7.2021500e-02
   8.7585400e-02
   1.0528600e-01
   1.2390100e-01
   1.1627200e-01
   1.0681200e-01
   8.4228500e-02
   6.6528300e-02
   6.9274900e-02
   8.6669900e-02
   1.1108400e-01
   1.1657700e-01
   1.2573200e-01
   9.9487300e-02
   8.5449200e-02
   9.2773400e-02
   1.0253900e-01
   1.1200000e-01
   1.1261000e-01
   1.3153100e-01
   1.4190700e-01
   1.2725800e-01
   1.4679000e-01
   9.9487300e-02
   7.8430200e-02
   8.4533700e-02
   1.2664800e-01
   1.1932400e-01
   1.2237500e-01
   1.3488800e-01
   1.4526400e-01
   1.4526400e-01
   1.3763400e-01
   1.3214100e-01
   1.4251700e-01
   1.3671900e-01
   1.3977100e-01
   1.4068600e-01
   1.4312700e-01
   1.5930200e-01
   1.6571000e-01
   1.7456100e-01
   1.3763400e-01
   1.5869100e-01
   1.5747100e-01
   1.5014600e-01
   1.5930200e-01
   1.7303500e-01
   1.8737800e-01
   1.9592300e-01
   1.9592300e-01
   1.8646200e-01
   1.9165000e-01
   1.9592300e-01
   2.1728500e-01
   2.1789600e-01
   1.9561800e-01
   2.1514900e-01
   2.2827100e-01
   2.2369400e-01
   2.3925800e-01
   2.3651100e-01
   2.2583000e-01
   2.3681600e-01
   2.5146500e-01
   2.5329600e-01
   2.5909400e-01
   2.5665300e-01
   2.3407000e-01
   2.5634800e-01
   2.8564500e-01
   2.9388400e-01
   2.8167700e-01
   2.8472900e-01
   2.8137200e-01
   2.7404800e-01
   2.8289800e-01
   2.9571500e-01
   3.0792200e-01
   3.1494100e-01
   3.1524700e-01
   3.1250000e-01
   2.9754600e-01
   3.2257100e-01
   3.3996600e-01
   3.2684300e-01
   3.3355700e-01
   3.1890900e-01
   3.3203100e-01
   3.5064700e-01
   3.5827600e-01
   3.3416700e-01
   3.2959000e-01
   3.2592800e-01
   3.2043500e-01
   3.0548100e-01
   3.0853300e-01
   3.1036400e-01
   3.2318100e-01
   3.3233600e-01
   3.0517600e-01
   2.9449500e-01
   2.7008100e-01
   2.6001000e-01
   2.4749800e-01
   2.4383500e-01
   2.4047900e-01
   2.2003200e-01
   2.1148700e-01
   1.9134500e-01
   1.7608600e-01
   1.7517100e-01
   1.5686000e-01
   1.3336200e-01
   1.1322000e-01
   1.0192900e-01
   1.0803200e-01
   1.0437000e-01
   1.1962900e-01
   8.7890600e-02
   5.5236800e-02
   4.5471200e-02
   5.2795400e-02
   6.6833500e-02
   6.5307600e-02
   5.7678200e-02
   5.3100600e-02
   3.6315900e-02
   3.5400400e-02
   4.6997100e-02
   7.0190400e-02
   6.4697300e-02
   4.3945300e-02
   6.9885300e-02
   5.7067900e-02
   5.4016100e-02
   3.3569300e-02
   4.1503900e-02
   3.7536600e-02
   3.6315900e-02
   3.5400400e-02
   5.9509300e-02
   7.1106000e-02
   8.0261200e-02
   5.7678200e-02
   2.0752000e-02
   1.6784700e-02
   2.2583000e-02
   3.6315900e-02
   1.9226100e-02
   1.2207000e-02
   2.6855500e-02
   4.3640100e-02
   6.0424800e-02
   4.4555700e-02
   3.8147000e-02
   5.4321300e-02
   6.0730000e-02
   3.9978000e-02
   1.0681200e-02
   2.9296900e-02
   2.9907200e-02
   2.9296900e-02
   4.4555700e-02
   5.1574700e-02
   5.5236800e-02
   6.2866200e-02
   7.1411100e-02
   8.2702600e-02
   6.8664600e-02
   4.6081500e-02
   3.6926300e-02
   3.3264200e-02
   6.0119600e-02
   6.6223100e-02
   5.2185100e-02
   6.7749000e-02
   6.0424800e-02
   5.4321300e-02
   5.8288600e-02
   3.7536600e-02
   4.7912600e-02
   3.0212400e-02
   2.5024400e-02
   3.9978000e-02
   3.3569300e-02
   3.6010700e-02
   5.4016100e-02
   4.4860800e-02
   6.4392100e-02
   7.0495600e-02
   4.3029800e-02
   4.0283200e-02
   5.4016100e-02
   4.5166000e-02
   4.5776400e-03
   1.0070800e-02
   3.7231400e-02
   4.1809100e-02
   4.4860800e-02
   4.4250500e-02
   4.6691900e-02
   3.3264200e-02
   3.7841800e-02
   2.9602100e-02
   3.4179700e-02
   4.0893600e-02
   3.7231400e-02
   2.1362300e-02
   2.8076200e-02
   5.3405800e-02
   6.5612800e-02
   4.6081500e-02
   6.4086900e-02
   5.7067900e-02
   7.6293900e-03
  -2.7771000e-02
   3.3569300e-03
   1.4038100e-02
   2.2888200e-02
   2.9907200e-02
   4.1198700e-02
   5.2795400e-02
   4.3029800e-02
   2.7465800e-02
   2.5634800e-02
   2.5939900e-02
   3.0822800e-02
   2.1057100e-02
   1.2207000e-02
   5.1879900e-03
   2.0446800e-02
   2.4719200e-02
   3.2043500e-02
   4.3335000e-02
   4.2114300e-02
   5.2490200e-02
   4.1809100e-02
   1.5564000e-02
   4.5166000e-02
   3.5400400e-02
   1.0986300e-02
   1.0376000e-02
   1.8005400e-02
   2.5939900e-02
   4.6997100e-02
   3.0212400e-02
   2.8991700e-02
   6.4086900e-03
  -9.1552700e-03
   1.0070800e-02
   2.4108900e-02
   2.7160600e-02
   3.0517600e-04
   3.0517600e-04
   1.3122600e-02
   3.1738300e-02
   3.2959000e-02
   2.3498500e-02
   2.9296900e-02
   3.4179700e-02
   3.9978000e-02
   2.5939900e-02
   2.3803700e-02
   2.3803700e-02
   9.7656300e-03
   1.1596700e-02
   7.6293900e-03
   6.4086900e-03
   2.4108900e-02
   3.3264200e-02
   2.4719200e-02
   4.1503900e-02
   4.2419400e-02
   1.4953600e-02
   1.9836400e-02
   3.5400400e-02
   2.2888200e-02
   3.1127900e-02
   3.0212400e-02
  -2.7160600e-02
  -2.7160600e-02
   6.1035200e-04
   1.4648400e-02
   2.1362300e-02
   2.4719200e-02
   3.1738300e-02
   3.8757300e-02
   4.1809100e-02
   3.4790000e-02
   1.4953600e-02
   1.3122600e-02
   2.8991700e-02
   2.1972700e-02
  -5.4931600e-03
   1.0986300e-02
   2.1972700e-02
   2.3193400e-02
   2.9602100e-02
   1.1901900e-02
   1.5564000e-02
   2.8991700e-02
   1.1291500e-02
   2.3803700e-02
   2.4719200e-02
   1.3427700e-02
   3.7841800e-02
   5.4321300e-02
   5.0354000e-02
   4.6081500e-02
   3.9672900e-03
   0.0000000e+00
  -5.1879900e-03
   2.2888200e-02
  -1.5869100e-02
  -1.3427700e-02
   9.7656300e-03
   4.3029800e-02
   5.2185100e-02
   3.4790000e-02
  -3.3569300e-03
  -1.2817400e-02
   8.2397500e-03
   2.1362300e-02
  -3.0517600e-04
  -6.1035200e-04
   9.4604500e-03
   1.2512200e-02
   1.6479500e-02
   2.0752000e-02
   2.3498500e-02
   2.7160600e-02
   3.4790000e-02
   2.3193400e-02
   1.8920900e-02
   5.7983400e-03
   1.9531300e-02
   4.6691900e-02
   4.4555700e-02
   3.2348600e-02
   2.5939900e-02
  -4.8828100e-03
  -7.3242200e-03
  -1.4953600e-02
   9.1552700e-04
   1.0070800e-02
   1.6784700e-02
   2.5939900e-02
   1.9531300e-02
   3.2348600e-02
   3.2959000e-02
   2.5024400e-02
   2.8686500e-02
   2.2277800e-02
   4.2724600e-02
   2.8686500e-02
   4.6386700e-02
   2.3498500e-02
