  -6.4981348e-01
  -6.3150348e-01
  -6.1471348e-01
  -6.2387348e-01
  -5.5673348e-01
  -5.8877348e-01
  -6.0403348e-01
  -6.0708348e-01
  -6.0403348e-01
  -6.1776348e-01
  -5.9182348e-01
  -5.8877348e-01
  -6.3760348e-01
  -6.0098348e-01
  -5.9640348e-01
  -5.9182348e-01
  -6.0250348e-01
  -5.8725348e-01
  -5.9640348e-01
  -5.9793348e-01
  -5.8114348e-01
  -6.0861348e-01
  -6.0556348e-01
  -5.8725348e-01
  -5.9030348e-01
  -5.7504348e-01
  -5.8419348e-01
  -5.9030348e-01
  -5.7046348e-01
  -5.8725348e-01
  -5.8725348e-01
  -5.7351348e-01
  -6.0250348e-01
  -5.5520348e-01
  -5.7351348e-01
  -5.9182348e-01
  -5.6894348e-01
  -5.3384348e-01
  -5.7351348e-01
  -5.7656348e-01
  -5.4300348e-01
  -5.5215348e-01
  -5.0485348e-01
  -5.3384348e-01
  -5.1706348e-01
  -5.5062348e-01
  -5.2468348e-01
  -5.4147348e-01
  -5.4147348e-01
  -5.5520348e-01
  -5.5520348e-01
  -5.2163348e-01
  -5.3384348e-01
  -5.3384348e-01
  -5.2774348e-01
  -5.2621348e-01
  -5.2316348e-01
  -5.1553348e-01
  -5.1706348e-01
  -4.9874348e-01
  -4.9722348e-01
  -5.0180348e-01
  -4.9722348e-01
  -4.9264348e-01
  -5.0485348e-01
  -5.2011348e-01
  -4.9722348e-01
  -4.7891348e-01
  -4.6060348e-01
  -4.7128348e-01
  -4.7586348e-01
  -4.6823348e-01
  -4.5297348e-01
  -4.8806348e-01
  -4.7128348e-01
  -4.6518348e-01
  -4.9417348e-01
  -4.6975348e-01
  -4.5602348e-01
  -4.5755348e-01
  -4.4686348e-01
  -4.0414348e-01
  -4.3161348e-01
  -4.3924348e-01
  -4.3161348e-01
  -4.2550348e-01
  -4.3618348e-01
  -4.1024348e-01
  -3.9956348e-01
  -3.8430348e-01
  -3.8736348e-01
  -3.8278348e-01
  -3.9193348e-01
  -4.0261348e-01
  -3.8888348e-01
  -3.7973348e-01
  -3.6447348e-01
  -3.7362348e-01
  -3.6142348e-01
  -3.5379348e-01
  -3.6905348e-01
  -3.3242348e-01
  -3.3242348e-01
  -3.4158348e-01
  -2.9428348e-01
  -3.1411348e-01
  -3.0648348e-01
  -2.9733348e-01
  -3.0038348e-01
  -3.1259348e-01
  -3.2022348e-01
  -2.8360348e-01
  -2.9580348e-01
  -3.0496348e-01
  -3.0496348e-01
  -3.1106348e-01
  -2.9885348e-01
  -2.6986348e-01
  -3.3548348e-01
  -3.0191348e-01
  -2.8207348e-01
  -2.3324348e-01
  -2.5613348e-01
  -2.9275348e-01
  -2.8970348e-01
  -2.7444348e-01
  -2.6376348e-01
  -2.7902348e-01
  -2.8360348e-01
  -2.8817348e-01
  -2.8665348e-01
  -3.0648348e-01
  -3.3853348e-01
  -3.4005348e-01
  -3.1717348e-01
  -3.3548348e-01
  -3.6142348e-01
  -3.5989348e-01
  -3.7362348e-01
  -3.8278348e-01
  -3.7667348e-01
  -3.9193348e-01
  -4.2703348e-01
  -4.2855348e-01
  -4.3924348e-01
  -4.6670348e-01
  -4.5144348e-01
  -4.5449348e-01
  -4.6975348e-01
  -5.0332348e-01
  -4.7891348e-01
  -5.1858348e-01
  -5.0637348e-01
  -5.0637348e-01
  -5.1248348e-01
  -5.2774348e-01
  -5.4300348e-01
  -5.2926348e-01
  -5.2468348e-01
  -5.5520348e-01
  -5.4910348e-01
  -5.3079348e-01
  -5.8267348e-01
  -5.4147348e-01
  -5.7809348e-01
  -5.6741348e-01
  -5.5978348e-01
  -5.7046348e-01
  -5.2926348e-01
  -5.6436348e-01
  -5.8267348e-01
  -5.6283348e-01
  -5.7046348e-01
  -5.3689348e-01
  -5.4605348e-01
  -5.4452348e-01
  -5.4452348e-01
  -5.5520348e-01
  -5.4910348e-01
  -5.5520348e-01
  -5.7046348e-01
  -5.6741348e-01
  -5.6131348e-01
  -5.6283348e-01
  -5.3537348e-01
  -5.5673348e-01
  -5.2926348e-01
  -5.3231348e-01
  -5.5673348e-01
  -5.5978348e-01
  -5.6131348e-01
  -5.6283348e-01
  -5.8877348e-01
  -5.5520348e-01
  -5.2316348e-01
  -5.6131348e-01
  -5.4147348e-01
  -5.5520348e-01
  -5.3537348e-01
  -5.4910348e-01
  -5.5215348e-01
  -5.6741348e-01
  -5.5825348e-01
  -5.5520348e-01
  -5.3231348e-01
  -5.6283348e-01
  -5.7809348e-01
  -5.7656348e-01
  -5.6741348e-01
  -5.3842348e-01
  -5.5368348e-01
  -5.3689348e-01
  -5.5520348e-01
  -5.4757348e-01
  -5.4147348e-01
  -5.5520348e-01
  -5.5520348e-01
  -5.3384348e-01
  -5.7046348e-01
  -5.5062348e-01
  -5.4910348e-01
  -5.4300348e-01
  -5.6894348e-01
  -5.5978348e-01
  -5.3231348e-01
  -5.8877348e-01
  -5.8114348e-01
  -5.4452348e-01
  -5.6741348e-01
  -5.8725348e-01
  -5.4605348e-01
  -5.2774348e-01
  -5.4605348e-01
  -5.5520348e-01
  -5.5062348e-01
  -5.9640348e-01
  -5.2774348e-01
  -5.6436348e-01
  -5.4147348e-01
  -5.8114348e-01
  -5.5520348e-01
  -5.4452348e-01
  -5.6588348e-01
  -5.6894348e-01
  -5.5673348e-01
  -5.7656348e-01
  -5.5825348e-01
  -5.5978348e-01
  -5.8267348e-01
  -5.7962348e-01
  -5.9182348e-01
  -5.7351348e-01
  -5.4910348e-01
  -5.8725348e-01
  -5.5825348e-01
  -5.7809348e-01
  -5.4452348e-01
  -5.5062348e-01
  -5.7656348e-01
  -5.7962348e-01
  -5.7809348e-01
  -5.6741348e-01
  -5.5520348e-01
  -5.9640348e-01
  -5.7199348e-01
  -5.8114348e-01
  -5.8419348e-01
  -5.7809348e-01
  -5.5368348e-01
  -6.0403348e-01
  -5.8267348e-01
  -5.5978348e-01
  -5.6894348e-01
  -5.5978348e-01
  -5.7809348e-01
  -5.4605348e-01
  -5.7809348e-01
  -5.3994348e-01
  -5.7504348e-01
  -5.9182348e-01
  -5.6588348e-01
  -5.7199348e-01
  -5.9182348e-01
  -5.7656348e-01
  -5.8114348e-01
  -5.8114348e-01
  -5.6131348e-01
  -5.4147348e-01
  -5.5673348e-01
  -5.7351348e-01
  -5.8114348e-01
  -5.5673348e-01
  -5.6741348e-01
  -5.7809348e-01
  -5.6436348e-01
  -5.8572348e-01
  -5.9030348e-01
  -5.4452348e-01
  -5.7962348e-01
  -6.0708348e-01
  -5.5825348e-01
  -5.6588348e-01
  -5.9945348e-01
  -6.1166348e-01
  -5.8725348e-01
  -5.6436348e-01
  -5.7504348e-01
  -6.0250348e-01
  -5.7504348e-01
  -5.4452348e-01
  -5.8267348e-01
  -5.7809348e-01
  -5.8267348e-01
  -5.6741348e-01
  -5.7656348e-01
  -5.7046348e-01
  -5.8725348e-01
  -5.8267348e-01
  -5.7504348e-01
  -5.7046348e-01
  -5.5368348e-01
  -5.5978348e-01
  -5.8725348e-01
  -5.9030348e-01
  -5.7656348e-01
  -5.7962348e-01
  -5.6283348e-01
  -5.7199348e-01
  -5.8419348e-01
  -5.8419348e-01
  -5.7962348e-01
  -5.6894348e-01
  -5.7199348e-01
  -5.7809348e-01
  -5.9945348e-01
  -5.7962348e-01
  -5.8267348e-01
  -5.6588348e-01
  -5.5673348e-01
  -5.6436348e-01
  -5.6131348e-01
  -5.7351348e-01
  -5.9182348e-01
  -5.7199348e-01
  -5.4300348e-01
  -5.6283348e-01
  -5.7504348e-01
  -5.7962348e-01
  -5.2468348e-01
  -5.3537348e-01
  -5.6741348e-01
  -5.5215348e-01
  -6.0098348e-01
  -5.7504348e-01
  -5.2621348e-01
  -5.3842348e-01
  -5.4147348e-01
  -5.2926348e-01
  -5.3994348e-01
  -5.3842348e-01
  -5.5825348e-01
  -5.4452348e-01
  -5.6894348e-01
  -5.2468348e-01
  -5.2621348e-01
  -5.0027348e-01
  -5.2774348e-01
  -5.5978348e-01
  -4.8501348e-01
  -4.8196348e-01
  -4.9569348e-01
  -4.9569348e-01
  -5.0943348e-01
  -5.1248348e-01
  -5.0485348e-01
  -5.2163348e-01
  -5.0637348e-01
  -5.0485348e-01
  -5.1858348e-01
  -5.3384348e-01
  -5.3079348e-01
  -5.2011348e-01
  -5.3537348e-01
  -5.6741348e-01
  -5.7351348e-01
  -5.8877348e-01
  -5.8572348e-01
  -5.9030348e-01
  -6.1776348e-01
  -5.9335348e-01
  -5.9030348e-01
  -5.8114348e-01
  -5.9030348e-01
  -5.8572348e-01
  -5.9182348e-01
  -6.0250348e-01
  -6.0556348e-01
  -5.9335348e-01
  -5.7351348e-01
  -5.8877348e-01
  -6.0861348e-01
  -5.8114348e-01
  -6.1471348e-01
  -6.0250348e-01
  -6.0403348e-01
  -6.4065348e-01
  -6.2539348e-01
  -5.4605348e-01
  -5.9182348e-01
  -6.2539348e-01
  -5.7199348e-01
  -5.7199348e-01
  -5.9945348e-01
  -6.2387348e-01
  -6.1624348e-01
  -6.0403348e-01
  -6.0708348e-01
  -5.9640348e-01
  -6.0861348e-01
  -6.0403348e-01
  -6.0403348e-01
  -5.8877348e-01
  -6.1013348e-01
  -6.1013348e-01
  -6.1166348e-01
  -6.0861348e-01
  -6.3455348e-01
  -6.4828348e-01
  -6.3150348e-01
  -5.4910348e-01
  -5.0637348e-01
  -4.5144348e-01
  -3.6752348e-01
  -2.8360348e-01
  -1.6763348e-01
  -1.2643348e-01
  -6.0823478e-02
  -3.1833478e-02
  -3.3353478e-02
  -7.6083478e-02
  -1.2490348e-01
  -2.0730348e-01
  -3.3548348e-01
  -4.1482348e-01
  -5.7199348e-01
  -7.7645348e-01
  -9.0768348e-01
  -8.9547348e-01
  -8.6801348e-01
  -8.4359348e-01
  -7.4136348e-01
  -6.8948348e-01
  -6.7422348e-01
  -6.5744348e-01
  -6.0556348e-01
  -5.8877348e-01
  -5.5673348e-01
  -5.4300348e-01
  -5.3384348e-01
  -5.3537348e-01
  -5.3537348e-01
  -5.4605348e-01
  -5.5673348e-01
  -5.4605348e-01
  -5.3994348e-01
  -5.8419348e-01
  -5.5825348e-01
  -5.5673348e-01
  -5.5368348e-01
  -5.2316348e-01
  -5.6283348e-01
  -5.3537348e-01
  -5.4757348e-01
  -5.4910348e-01
  -5.3842348e-01
  -5.4757348e-01
  -5.4300348e-01
  -5.2926348e-01
  -5.3689348e-01
  -5.4147348e-01
  -5.4147348e-01
  -5.6436348e-01
  -5.0637348e-01
  -5.0180348e-01
  -4.8501348e-01
  -5.3689348e-01
  -5.1553348e-01
  -5.0180348e-01
  -5.4300348e-01
  -5.0790348e-01
  -4.9722348e-01
  -5.1248348e-01
  -5.1553348e-01
  -5.2163348e-01
  -5.0180348e-01
  -4.7738348e-01
  -4.6518348e-01
  -4.8349348e-01
  -4.9112348e-01
  -4.8654348e-01
  -4.8654348e-01
  -4.6823348e-01
  -5.3079348e-01
  -4.9722348e-01
  -4.7433348e-01
  -4.6975348e-01
  -4.6365348e-01
  -4.7128348e-01
  -4.9417348e-01
  -4.6670348e-01
  -4.7433348e-01
  -4.6212348e-01
  -4.4992348e-01
  -4.6365348e-01
  -4.6823348e-01
  -4.6060348e-01
  -4.2855348e-01
  -4.3924348e-01
  -4.6365348e-01
  -4.4839348e-01
  -4.5755348e-01
  -4.3466348e-01
  -4.6518348e-01
  -4.1177348e-01
  -4.3161348e-01
  -4.1177348e-01
  -4.3466348e-01
  -4.1330348e-01
  -4.2550348e-01
  -4.0567348e-01
  -4.1330348e-01
  -3.7515348e-01
  -3.9346348e-01
  -4.0872348e-01
  -4.1635348e-01
  -3.6752348e-01
  -3.6599348e-01
  -4.0719348e-01
  -3.8583348e-01
  -3.8125348e-01
  -3.7667348e-01
  -3.5684348e-01
  -3.2327348e-01
  -3.4311348e-01
  -3.4158348e-01
  -3.1717348e-01
  -3.2937348e-01
  -3.5531348e-01
  -3.3853348e-01
  -3.1717348e-01
  -2.8817348e-01
  -2.8512348e-01
  -2.9123348e-01
  -2.9428348e-01
  -2.8817348e-01
  -2.8665348e-01
  -2.7444348e-01
  -2.6834348e-01
  -2.5766348e-01
  -2.9580348e-01
  -2.4240348e-01
  -2.3782348e-01
  -2.5460348e-01
  -2.3324348e-01
  -2.3782348e-01
  -2.4087348e-01
  -2.3477348e-01
  -2.3172348e-01
  -2.5003348e-01
  -2.6071348e-01
  -2.4087348e-01
  -2.4240348e-01
  -2.4087348e-01
  -1.8899348e-01
  -2.1188348e-01
  -2.3629348e-01
  -2.3477348e-01
  -2.2714348e-01
  -2.2561348e-01
  -2.0730348e-01
  -2.1493348e-01
  -2.3019348e-01
  -2.4545348e-01
  -2.0730348e-01
  -2.2561348e-01
  -2.5613348e-01
  -2.6681348e-01
  -2.6223348e-01
  -2.9580348e-01
  -2.9123348e-01
  -2.8512348e-01
  -2.9123348e-01
  -3.5531348e-01
  -3.2632348e-01
  -3.2632348e-01
  -3.3700348e-01
  -3.7210348e-01
  -3.6752348e-01
  -3.9193348e-01
  -4.0872348e-01
  -4.2093348e-01
  -4.1940348e-01
  -4.2855348e-01
  -4.4992348e-01
  -4.3924348e-01
  -4.7128348e-01
  -4.8043348e-01
  -4.7891348e-01
  -4.9112348e-01
  -4.8806348e-01
  -5.0790348e-01
  -4.8349348e-01
  -5.4910348e-01
  -4.9569348e-01
  -4.8349348e-01
  -5.1553348e-01
  -5.1095348e-01
  -5.4300348e-01
  -5.5368348e-01
  -4.9264348e-01
  -5.1095348e-01
  -5.1858348e-01
  -5.0790348e-01
  -5.1553348e-01
  -5.0943348e-01
  -5.2621348e-01
  -5.0637348e-01
  -4.9722348e-01
  -5.4910348e-01
  -5.0332348e-01
  -5.1248348e-01
  -5.1706348e-01
  -5.2011348e-01
  -5.6283348e-01
  -5.0027348e-01
  -5.3537348e-01
  -5.1553348e-01
  -5.0485348e-01
  -4.9722348e-01
  -4.9874348e-01
  -5.0790348e-01
  -4.9417348e-01
  -5.1858348e-01
  -5.0485348e-01
  -5.0637348e-01
  -5.3231348e-01
  -5.3994348e-01
  -5.0637348e-01
  -4.7891348e-01
  -4.9874348e-01
  -4.9264348e-01
  -5.0943348e-01
  -5.0943348e-01
  -5.2621348e-01
  -4.9874348e-01
  -5.3231348e-01
  -5.2926348e-01
  -5.3384348e-01
  -4.6975348e-01
  -5.2621348e-01
  -5.1858348e-01
  -4.9874348e-01
  -5.0637348e-01
  -5.0332348e-01
  -5.4605348e-01
  -5.1248348e-01
  -5.1248348e-01
  -5.1706348e-01
  -5.2774348e-01
  -4.8806348e-01
  -5.0027348e-01
  -5.1248348e-01
  -5.3842348e-01
  -5.4452348e-01
  -4.8654348e-01
  -5.0637348e-01
  -5.2163348e-01
  -5.0637348e-01
  -5.0943348e-01
  -5.2926348e-01
  -4.9874348e-01
  -5.1706348e-01
  -5.4910348e-01
  -5.4300348e-01
  -5.1858348e-01
  -5.2163348e-01
  -5.1706348e-01
  -5.2926348e-01
  -5.1706348e-01
  -5.2011348e-01
  -5.2468348e-01
  -5.2316348e-01
  -5.2468348e-01
  -5.3384348e-01
  -5.4300348e-01
  -5.3231348e-01
  -5.3537348e-01
  -5.4300348e-01
  -5.2621348e-01
  -5.3994348e-01
  -5.3079348e-01
  -5.1706348e-01
  -5.2468348e-01
  -5.4605348e-01
  -5.2926348e-01
  -5.3231348e-01
  -5.2468348e-01
  -5.5215348e-01
  -5.3231348e-01
  -5.7046348e-01
  -5.2011348e-01
  -5.5215348e-01
  -5.3994348e-01
  -5.2621348e-01
  -5.3842348e-01
  -5.4147348e-01
  -5.5368348e-01
  -5.3994348e-01
  -5.4147348e-01
  -5.4300348e-01
  -5.5673348e-01
  -5.6588348e-01
  -5.7504348e-01
  -5.5368348e-01
  -5.1095348e-01
  -5.5520348e-01
  -5.3537348e-01
  -5.4300348e-01
  -5.4147348e-01
  -5.5520348e-01
  -5.6588348e-01
  -5.3537348e-01
  -5.5520348e-01
  -5.6436348e-01
  -5.3231348e-01
  -5.4757348e-01
  -5.4757348e-01
  -5.3842348e-01
  -5.4147348e-01
  -5.4605348e-01
  -5.5215348e-01
  -5.4910348e-01
  -5.6436348e-01
  -5.4605348e-01
  -5.4452348e-01
  -5.4605348e-01
  -5.4910348e-01
  -5.6436348e-01
  -5.4757348e-01
  -5.5215348e-01
  -5.4300348e-01
  -5.2163348e-01
  -5.4452348e-01
  -5.4910348e-01
  -5.3079348e-01
  -5.2468348e-01
  -5.1553348e-01
  -5.3994348e-01
  -5.4757348e-01
  -5.3689348e-01
  -5.5673348e-01
  -5.1095348e-01
  -5.4147348e-01
  -5.4452348e-01
  -5.0485348e-01
  -5.3842348e-01
  -5.2621348e-01
  -4.7586348e-01
  -4.5297348e-01
  -4.5449348e-01
  -4.7128348e-01
  -4.8654348e-01
  -4.8806348e-01
  -4.9874348e-01
  -4.8654348e-01
  -4.8501348e-01
  -4.2245348e-01
  -4.7738348e-01
  -4.9874348e-01
  -4.9112348e-01
  -4.8349348e-01
  -4.6670348e-01
  -4.7128348e-01
  -4.8654348e-01
  -4.8654348e-01
  -5.1248348e-01
  -4.9112348e-01
  -4.9569348e-01
  -5.0637348e-01
  -5.7656348e-01
  -5.8572348e-01
  -5.2926348e-01
  -5.5825348e-01
  -5.7962348e-01
  -5.6741348e-01
  -5.9945348e-01
  -5.9030348e-01
  -5.2316348e-01
  -5.4300348e-01
  -5.7046348e-01
  -5.5215348e-01
  -5.5215348e-01
  -5.5673348e-01
  -5.7962348e-01
  -5.6131348e-01
  -5.5978348e-01
  -5.8572348e-01
  -5.9182348e-01
  -5.9030348e-01
  -6.0861348e-01
  -5.5520348e-01
  -5.2011348e-01
  -5.5673348e-01
  -5.5825348e-01
  -5.7962348e-01
  -5.6283348e-01
  -5.5825348e-01
  -5.8572348e-01
  -5.6894348e-01
  -5.6588348e-01
  -5.4147348e-01
  -5.6283348e-01
  -5.6588348e-01
  -5.4757348e-01
  -5.6894348e-01
  -5.6741348e-01
  -5.9182348e-01
  -5.6436348e-01
  -5.4605348e-01
  -5.4147348e-01
  -5.9945348e-01
  -5.9335348e-01
  -5.6436348e-01
  -5.8877348e-01
  -5.8114348e-01
  -5.3994348e-01
  -4.7433348e-01
  -4.2703348e-01
  -3.6142348e-01
  -2.6071348e-01
  -1.7373348e-01
  -1.0202348e-01
  -6.0823478e-02
   9.3665217e-03
   3.6836522e-02
  -2.1143478e-02
  -7.6083478e-02
  -1.5542348e-01
  -2.6223348e-01
  -3.8430348e-01
  -5.1095348e-01
  -7.2000348e-01
  -9.0615348e-01
  -9.1378348e-01
  -8.7564348e-01
  -8.0545348e-01
  -7.3831348e-01
  -6.9101348e-01
  -6.6812348e-01
  -6.8032348e-01
  -6.2539348e-01
  -5.7199348e-01
  -5.2774348e-01
  -5.6131348e-01
  -5.0027348e-01
  -5.1858348e-01
  -5.2316348e-01
  -5.1858348e-01
  -5.0637348e-01
  -5.0485348e-01
  -4.8959348e-01
  -5.0027348e-01
  -5.0180348e-01
  -5.1858348e-01
  -5.1706348e-01
  -5.2316348e-01
  -5.2163348e-01
  -5.4300348e-01
  -5.0332348e-01
  -5.0332348e-01
  -5.0027348e-01
  -5.0943348e-01
  -5.0790348e-01
  -5.1553348e-01
  -4.9569348e-01
  -5.1095348e-01
  -4.9722348e-01
  -5.0332348e-01
  -4.9417348e-01
  -5.1706348e-01
  -5.0332348e-01
  -5.1858348e-01
  -4.8654348e-01
  -4.4992348e-01
  -4.6365348e-01
  -4.4992348e-01
  -4.7280348e-01
  -4.8196348e-01
  -4.7891348e-01
  -5.0027348e-01
  -4.3008348e-01
  -4.4839348e-01
  -4.5297348e-01
  -4.8196348e-01
  -4.5907348e-01
  -4.6823348e-01
  -4.4076348e-01
  -4.5144348e-01
  -4.5297348e-01
  -4.5297348e-01
  -4.4686348e-01
  -4.2245348e-01
  -4.4076348e-01
  -4.4076348e-01
  -4.2855348e-01
  -4.2855348e-01
  -4.0872348e-01
  -4.2703348e-01
  -4.0872348e-01
  -4.0872348e-01
  -4.0414348e-01
  -4.0872348e-01
  -3.8888348e-01
  -4.1787348e-01
  -4.1940348e-01
  -4.1177348e-01
  -4.4534348e-01
  -4.4229348e-01
  -3.6599348e-01
  -3.7667348e-01
  -3.9193348e-01
  -3.7210348e-01
  -3.8888348e-01
  -3.9193348e-01
  -3.4311348e-01
  -3.7362348e-01
  -3.4463348e-01
  -3.4463348e-01
  -3.6142348e-01
  -3.4463348e-01
  -3.5989348e-01
  -3.2022348e-01
  -3.4005348e-01
  -3.5836348e-01
  -3.4616348e-01
  -3.0648348e-01
  -3.2327348e-01
  -3.2632348e-01
  -3.1411348e-01
  -2.9123348e-01
  -2.9580348e-01
  -2.9123348e-01
  -2.6681348e-01
  -3.0801348e-01
  -2.7902348e-01
  -2.9733348e-01
  -2.3172348e-01
  -2.4697348e-01
  -2.4545348e-01
  -2.4087348e-01
  -2.4697348e-01
  -2.2561348e-01
  -2.2866348e-01
  -2.3477348e-01
  -2.3935348e-01
  -2.1493348e-01
  -2.1188348e-01
  -1.7221348e-01
  -2.1798348e-01
  -2.2409348e-01
  -1.8136348e-01
  -1.9815348e-01
  -2.0425348e-01
  -1.6916348e-01
  -1.7678348e-01
  -1.7678348e-01
  -1.7221348e-01
  -1.8289348e-01
  -2.0272348e-01
  -1.7526348e-01
  -1.4779348e-01
  -1.6763348e-01
  -1.7526348e-01
  -1.7526348e-01
  -1.5542348e-01
  -2.0425348e-01
  -1.8747348e-01
  -1.7221348e-01
  -2.2714348e-01
  -1.7068348e-01
  -1.8136348e-01
  -2.0883348e-01
  -2.2561348e-01
  -2.3782348e-01
  -2.4392348e-01
  -2.7749348e-01
  -3.0038348e-01
  -3.3853348e-01
  -2.8207348e-01
  -3.3090348e-01
  -2.9885348e-01
  -3.6752348e-01
  -3.7362348e-01
  -3.4158348e-01
  -3.2937348e-01
  -3.8278348e-01
  -3.8430348e-01
  -4.0414348e-01
  -4.1024348e-01
  -4.2245348e-01
  -4.1330348e-01
  -4.4381348e-01
  -4.6823348e-01
  -4.9112348e-01
  -4.6365348e-01
  -4.4992348e-01
  -4.4992348e-01
  -4.5144348e-01
  -4.6670348e-01
  -4.6823348e-01
  -4.5755348e-01
  -4.6060348e-01
  -5.0027348e-01
  -5.1248348e-01
  -5.2316348e-01
  -4.7128348e-01
  -4.8196348e-01
  -4.6212348e-01
  -4.8196348e-01
  -4.8043348e-01
  -4.9874348e-01
  -4.6212348e-01
  -4.6670348e-01
  -4.9112348e-01
  -4.7891348e-01
  -4.9722348e-01
  -4.6670348e-01
  -5.0485348e-01
  -5.1248348e-01
  -4.7433348e-01
  -4.8806348e-01
  -5.0790348e-01
  -4.8654348e-01
  -4.8959348e-01
  -4.8043348e-01
  -4.6670348e-01
  -4.7128348e-01
  -4.7280348e-01
  -5.0027348e-01
  -4.6060348e-01
  -4.6518348e-01
  -4.8349348e-01
  -4.9569348e-01
  -4.9264348e-01
  -4.6823348e-01
  -4.7433348e-01
  -4.8959348e-01
  -4.4686348e-01
  -4.9264348e-01
  -4.9874348e-01
  -4.9417348e-01
  -4.7128348e-01
  -4.9874348e-01
  -4.6212348e-01
  -4.6823348e-01
  -4.7586348e-01
  -4.8806348e-01
  -4.7586348e-01
  -4.8959348e-01
  -4.8654348e-01
  -4.8196348e-01
  -4.9722348e-01
  -5.3079348e-01
  -4.8349348e-01
  -4.8806348e-01
  -4.6518348e-01
  -5.0485348e-01
  -4.8501348e-01
  -4.7891348e-01
  -4.8501348e-01
  -4.9264348e-01
  -4.9874348e-01
  -4.9264348e-01
  -5.0637348e-01
  -4.9569348e-01
  -4.9264348e-01
  -5.1553348e-01
  -5.0943348e-01
  -4.9569348e-01
  -5.0027348e-01
  -5.1248348e-01
  -4.9417348e-01
  -5.1553348e-01
  -4.8654348e-01
  -5.0180348e-01
  -5.1858348e-01
  -4.9112348e-01
  -4.8349348e-01
  -4.8959348e-01
  -5.1706348e-01
  -5.0485348e-01
  -5.0027348e-01
  -5.1095348e-01
  -5.0637348e-01
  -4.8806348e-01
  -5.1248348e-01
  -5.0943348e-01
  -5.3079348e-01
  -5.3689348e-01
  -5.3384348e-01
  -4.6670348e-01
  -4.9264348e-01
  -5.3384348e-01
  -5.0790348e-01
  -4.8806348e-01
  -4.9722348e-01
  -5.0637348e-01
  -5.2316348e-01
  -5.1248348e-01
  -4.8196348e-01
  -5.0485348e-01
  -5.2468348e-01
  -5.2163348e-01
  -5.1248348e-01
  -5.0485348e-01
  -5.1095348e-01
  -5.2468348e-01
  -4.8501348e-01
  -5.0637348e-01
  -5.3231348e-01
  -5.2163348e-01
  -4.8654348e-01
  -5.0637348e-01
  -5.4452348e-01
  -5.1858348e-01
  -5.1858348e-01
  -5.0332348e-01
  -5.2011348e-01
  -5.0790348e-01
  -5.0637348e-01
  -5.2774348e-01
  -5.2621348e-01
  -5.1706348e-01
  -5.2774348e-01
  -5.3842348e-01
  -5.1248348e-01
  -5.3537348e-01
  -5.4757348e-01
  -4.5449348e-01
  -5.1095348e-01
  -5.0637348e-01
  -4.7433348e-01
  -5.1095348e-01
  -5.1248348e-01
  -5.0332348e-01
  -5.1858348e-01
  -5.3994348e-01
  -5.1248348e-01
  -5.5215348e-01
  -5.9030348e-01
  -4.9569348e-01
  -4.8654348e-01
  -5.1248348e-01
  -5.3842348e-01
  -5.0180348e-01
  -5.0790348e-01
  -5.2163348e-01
  -5.1706348e-01
  -5.2011348e-01
  -4.9874348e-01
  -5.3231348e-01
  -4.9874348e-01
  -5.5368348e-01
  -5.4757348e-01
  -4.9569348e-01
  -5.1858348e-01
  -4.9417348e-01
  -5.0180348e-01
  -5.2774348e-01
  -5.2468348e-01
  -5.0790348e-01
  -5.0332348e-01
  -5.1095348e-01
  -5.0943348e-01
  -5.0790348e-01
  -5.3384348e-01
  -5.7351348e-01
  -5.0485348e-01
  -5.2468348e-01
  -4.7738348e-01
  -4.9722348e-01
  -5.2774348e-01
  -4.9722348e-01
  -5.1095348e-01
  -5.3384348e-01
  -5.2621348e-01
  -4.9417348e-01
  -5.1553348e-01
  -4.9874348e-01
  -5.2468348e-01
  -5.1553348e-01
  -4.9264348e-01
  -5.1706348e-01
  -4.9874348e-01
  -4.7891348e-01
  -4.9722348e-01
  -5.2926348e-01
  -4.9874348e-01
  -5.3231348e-01
  -5.1858348e-01
  -5.1553348e-01
  -5.0637348e-01
  -5.1248348e-01
  -5.1858348e-01
  -5.0485348e-01
  -5.2011348e-01
  -4.7586348e-01
  -4.9722348e-01
  -5.2316348e-01
  -4.8349348e-01
  -4.7128348e-01
  -4.8349348e-01
  -5.0485348e-01
  -4.9569348e-01
  -4.7280348e-01
  -5.0485348e-01
  -4.7128348e-01
  -4.8501348e-01
  -4.8959348e-01
  -4.8196348e-01
  -4.6518348e-01
  -4.6060348e-01
  -4.7433348e-01
  -4.6518348e-01
  -4.2855348e-01
  -4.2703348e-01
  -4.3618348e-01
  -4.3008348e-01
  -4.3008348e-01
  -4.3008348e-01
  -4.3161348e-01
  -4.4992348e-01
  -4.1024348e-01
  -4.4076348e-01
  -4.6212348e-01
  -4.0719348e-01
  -4.2550348e-01
  -4.1024348e-01
  -4.3618348e-01
  -4.2398348e-01
  -4.3161348e-01
  -4.4381348e-01
  -4.5144348e-01
  -4.8043348e-01
  -4.9569348e-01
  -4.9112348e-01
  -5.0790348e-01
  -5.0332348e-01
  -5.1858348e-01
  -5.0180348e-01
  -5.2011348e-01
  -5.0790348e-01
  -5.3231348e-01
  -5.4147348e-01
  -5.1858348e-01
  -5.3231348e-01
  -5.2774348e-01
  -5.4147348e-01
  -5.2926348e-01
  -5.2316348e-01
  -5.2011348e-01
  -5.4757348e-01
  -4.8806348e-01
  -5.2011348e-01
  -5.2316348e-01
  -5.3231348e-01
  -5.3994348e-01
  -5.1858348e-01
  -5.2468348e-01
  -5.0027348e-01
  -5.2774348e-01
  -5.0943348e-01
  -5.0180348e-01
  -5.2621348e-01
  -5.1858348e-01
  -5.0943348e-01
  -5.1706348e-01
  -5.0943348e-01
  -5.4452348e-01
  -5.4147348e-01
  -5.2316348e-01
  -4.8959348e-01
  -5.0943348e-01
  -5.1858348e-01
  -5.1553348e-01
  -5.4300348e-01
  -5.4910348e-01
  -5.4300348e-01
  -5.2011348e-01
  -5.5062348e-01
  -5.5825348e-01
  -5.3689348e-01
  -5.0637348e-01
  -4.7280348e-01
  -3.4005348e-01
  -3.0801348e-01
  -1.7373348e-01
  -7.7603478e-02
  -3.3353478e-02
   1.6996522e-02
   9.3296522e-02
   4.9046522e-02
  -2.2673478e-02
  -1.0202348e-01
  -1.1880348e-01
  -1.8289348e-01
  -3.1106348e-01
  -4.9112348e-01
  -7.0932348e-01
  -8.8174348e-01
  -8.7869348e-01
  -7.9477348e-01
  -7.5357348e-01
  -6.8032348e-01
  -6.4065348e-01
  -6.4828348e-01
  -6.0403348e-01
  -5.6588348e-01
  -5.5825348e-01
  -5.0637348e-01
  -4.8654348e-01
  -4.8501348e-01
  -4.4686348e-01
  -4.6975348e-01
  -4.9722348e-01
  -4.7128348e-01
  -4.8349348e-01
  -4.5602348e-01
  -4.6975348e-01
  -4.7738348e-01
  -4.7280348e-01
  -4.7738348e-01
  -4.7738348e-01
  -4.9112348e-01
  -4.8349348e-01
  -5.0027348e-01
  -4.4686348e-01
  -4.6518348e-01
  -4.6823348e-01
  -4.6060348e-01
  -4.8806348e-01
  -4.7891348e-01
  -4.6060348e-01
  -5.2468348e-01
  -4.5449348e-01
  -4.9569348e-01
  -4.2855348e-01
  -4.1787348e-01
  -4.4839348e-01
  -4.4229348e-01
  -4.4229348e-01
  -4.4686348e-01
  -4.3924348e-01
  -4.4229348e-01
  -4.6823348e-01
  -4.4229348e-01
  -4.4381348e-01
  -4.4534348e-01
  -4.7738348e-01
  -4.2093348e-01
  -4.3008348e-01
  -4.4381348e-01
  -4.5297348e-01
  -4.0109348e-01
  -4.3618348e-01
  -4.3924348e-01
  -4.1482348e-01
  -3.9499348e-01
  -4.0261348e-01
  -4.0719348e-01
  -4.0109348e-01
  -4.0719348e-01
  -4.1940348e-01
  -4.5297348e-01
  -4.1482348e-01
  -4.2245348e-01
  -4.2703348e-01
  -3.9499348e-01
  -3.6142348e-01
  -3.6294348e-01
  -3.8278348e-01
  -3.8125348e-01
  -3.9193348e-01
  -3.8736348e-01
  -3.5379348e-01
  -3.7362348e-01
  -3.9346348e-01
  -3.7210348e-01
  -3.7362348e-01
  -3.5684348e-01
  -3.6599348e-01
  -3.5379348e-01
  -3.4158348e-01
  -3.5379348e-01
  -3.3548348e-01
  -3.3853348e-01
  -3.3700348e-01
  -3.2174348e-01
  -3.2937348e-01
  -3.4768348e-01
  -3.5379348e-01
  -3.2022348e-01
  -2.7749348e-01
  -3.0954348e-01
  -2.9733348e-01
  -2.7444348e-01
  -2.8665348e-01
  -2.8817348e-01
  -3.0343348e-01
  -2.7291348e-01
  -2.7749348e-01
  -2.6529348e-01
  -3.0191348e-01
  -2.5460348e-01
  -2.5155348e-01
  -2.3935348e-01
  -2.5003348e-01
  -2.8817348e-01
  -2.2256348e-01
  -2.2866348e-01
  -2.1035348e-01
  -1.8899348e-01
  -2.1951348e-01
  -1.8899348e-01
  -2.0425348e-01
  -2.0425348e-01
  -1.8747348e-01
  -1.8289348e-01
  -1.9204348e-01
  -1.7831348e-01
  -2.0425348e-01
  -1.9662348e-01
  -1.8289348e-01
  -1.9357348e-01
  -1.6916348e-01
  -1.9967348e-01
  -1.7221348e-01
  -1.5542348e-01
  -1.7373348e-01
  -1.6610348e-01
  -1.6916348e-01
  -1.6458348e-01
  -1.7526348e-01
  -1.4627348e-01
  -1.6153348e-01
  -2.0883348e-01
  -1.3864348e-01
  -1.6305348e-01
  -1.6610348e-01
  -2.3172348e-01
  -2.2561348e-01
  -2.1035348e-01
  -2.3324348e-01
  -2.5003348e-01
  -2.6986348e-01
  -2.3019348e-01
  -2.6376348e-01
  -2.6529348e-01
  -2.9428348e-01
  -3.0801348e-01
  -2.8665348e-01
  -3.1106348e-01
  -3.3090348e-01
  -3.4616348e-01
  -3.3548348e-01
  -3.6599348e-01
  -3.5379348e-01
  -3.7362348e-01
  -3.8583348e-01
  -4.1940348e-01
  -4.2855348e-01
  -4.1482348e-01
  -3.8278348e-01
  -3.9041348e-01
  -4.0872348e-01
  -4.3466348e-01
  -4.2703348e-01
  -4.1024348e-01
  -4.3161348e-01
  -4.3008348e-01
  -4.3771348e-01
  -4.4839348e-01
  -4.4839348e-01
  -4.4839348e-01
  -4.8501348e-01
  -4.4534348e-01
  -4.6975348e-01
  -4.6670348e-01
  -4.5602348e-01
  -4.5602348e-01
  -4.2550348e-01
  -4.1024348e-01
  -4.3466348e-01
  -4.6975348e-01
  -4.3161348e-01
  -4.1940348e-01
  -4.5144348e-01
  -4.2245348e-01
  -4.5297348e-01
  -4.4229348e-01
  -4.7280348e-01
  -4.3924348e-01
  -4.6670348e-01
  -4.4534348e-01
  -4.3771348e-01
  -4.7280348e-01
  -4.5907348e-01
  -4.4534348e-01
  -4.7280348e-01
  -4.4839348e-01
  -4.4686348e-01
  -4.3008348e-01
  -4.3466348e-01
  -4.4534348e-01
  -4.2703348e-01
  -4.4839348e-01
  -4.4534348e-01
  -4.4534348e-01
  -4.7586348e-01
  -4.4839348e-01
  -4.4534348e-01
  -4.4229348e-01
  -4.6365348e-01
  -4.6212348e-01
  -4.5907348e-01
  -4.4686348e-01
  -4.5144348e-01
  -4.5297348e-01
  -4.4534348e-01
  -4.9264348e-01
  -4.8959348e-01
  -4.2550348e-01
  -4.4381348e-01
  -4.6212348e-01
  -4.3008348e-01
  -4.5449348e-01
  -4.6212348e-01
  -4.6212348e-01
  -4.8501348e-01
  -4.7586348e-01
  -4.8806348e-01
  -4.8196348e-01
  -4.9112348e-01
  -4.3161348e-01
  -4.9112348e-01
  -4.8043348e-01
  -4.6518348e-01
  -4.6823348e-01
  -4.8196348e-01
  -4.8501348e-01
  -4.6975348e-01
  -4.9264348e-01
  -4.9112348e-01
  -4.7891348e-01
  -4.6518348e-01
  -4.6060348e-01
  -4.6212348e-01
  -4.6975348e-01
  -5.0027348e-01
  -4.9722348e-01
  -4.5602348e-01
  -4.6975348e-01
  -4.7280348e-01
  -4.9569348e-01
  -4.7433348e-01
  -4.8654348e-01
  -4.8806348e-01
  -4.5449348e-01
  -5.4300348e-01
  -4.7280348e-01
  -5.1706348e-01
  -4.6823348e-01
  -4.9874348e-01
  -5.3384348e-01
  -4.5602348e-01
  -4.9264348e-01
  -4.8196348e-01
  -4.4534348e-01
  -4.7128348e-01
  -4.8043348e-01
  -4.9417348e-01
  -4.7433348e-01
  -4.9112348e-01
  -4.9874348e-01
  -5.2621348e-01
  -5.2011348e-01
  -4.7280348e-01
  -4.7891348e-01
  -4.9722348e-01
  -4.7128348e-01
  -5.0790348e-01
  -4.8043348e-01
  -4.8806348e-01
  -5.0485348e-01
  -4.9264348e-01
  -5.0790348e-01
  -4.9569348e-01
  -4.8349348e-01
  -4.8196348e-01
  -4.9874348e-01
  -5.0637348e-01
  -4.7280348e-01
  -5.0637348e-01
  -5.2468348e-01
  -4.8959348e-01
  -5.4452348e-01
  -4.8959348e-01
  -4.5907348e-01
  -4.7586348e-01
  -5.0332348e-01
  -4.9569348e-01
  -4.9112348e-01
  -4.7128348e-01
  -5.0180348e-01
  -4.9112348e-01
  -4.8959348e-01
  -5.2621348e-01
  -4.8043348e-01
  -4.7128348e-01
  -4.8654348e-01
  -4.8959348e-01
  -4.7280348e-01
  -4.9569348e-01
  -4.8959348e-01
  -4.9722348e-01
  -5.1095348e-01
  -4.9417348e-01
  -5.0637348e-01
  -5.2316348e-01
  -5.2011348e-01
  -4.7891348e-01
  -4.9264348e-01
  -4.9417348e-01
  -4.9264348e-01
  -4.9569348e-01
  -4.9569348e-01
  -5.0332348e-01
  -4.9112348e-01
  -4.9569348e-01
  -5.0790348e-01
  -5.2621348e-01
  -4.9569348e-01
  -4.6365348e-01
  -5.0027348e-01
  -4.8959348e-01
  -5.2774348e-01
  -5.0637348e-01
  -4.8806348e-01
  -4.9874348e-01
  -4.9264348e-01
  -5.3537348e-01
  -4.7738348e-01
  -4.9569348e-01
  -5.0790348e-01
  -4.7738348e-01
  -4.8654348e-01
  -4.8959348e-01
  -4.7433348e-01
  -4.8196348e-01
  -5.1095348e-01
  -4.7586348e-01
  -4.9264348e-01
  -4.6975348e-01
  -5.0027348e-01
  -5.0332348e-01
  -4.9264348e-01
  -5.0943348e-01
  -4.7280348e-01
  -4.8043348e-01
  -4.9569348e-01
  -4.9264348e-01
  -4.5907348e-01
  -4.8349348e-01
  -4.8959348e-01
  -5.0027348e-01
  -5.0027348e-01
  -4.7280348e-01
  -4.9112348e-01
  -4.7891348e-01
  -5.0790348e-01
  -4.9874348e-01
  -5.0943348e-01
  -5.1095348e-01
  -5.0943348e-01
  -5.5368348e-01
  -5.4757348e-01
  -4.5144348e-01
  -4.8196348e-01
  -4.2093348e-01
  -4.7586348e-01
  -4.8501348e-01
  -4.8654348e-01
  -5.1248348e-01
  -5.0180348e-01
  -4.6823348e-01
  -4.7891348e-01
  -5.0027348e-01
  -4.7128348e-01
  -4.7586348e-01
  -5.1553348e-01
  -4.9722348e-01
  -4.9112348e-01
  -5.0485348e-01
  -4.9264348e-01
  -4.5907348e-01
  -4.7128348e-01
  -4.7280348e-01
  -4.6975348e-01
  -4.8196348e-01
  -4.9264348e-01
  -4.7738348e-01
  -4.4992348e-01
  -4.6518348e-01
  -4.6670348e-01
  -4.5449348e-01
  -4.6518348e-01
  -4.8959348e-01
  -4.7433348e-01
  -4.6518348e-01
  -4.5755348e-01
  -4.6670348e-01
  -4.4229348e-01
  -4.4229348e-01
  -4.4229348e-01
  -4.1482348e-01
  -4.1940348e-01
  -4.1940348e-01
  -4.0872348e-01
  -4.2398348e-01
  -4.5602348e-01
  -4.3466348e-01
  -4.2093348e-01
  -4.2093348e-01
  -3.8430348e-01
  -4.1940348e-01
  -4.2245348e-01
  -4.0872348e-01
  -4.2245348e-01
  -4.1635348e-01
  -4.2550348e-01
  -4.4839348e-01
  -4.2703348e-01
  -4.3466348e-01
  -4.3924348e-01
  -4.3771348e-01
  -4.4686348e-01
  -4.8196348e-01
  -4.9722348e-01
  -5.1095348e-01
  -5.2011348e-01
  -4.9264348e-01
  -4.8654348e-01
  -5.0943348e-01
  -5.2621348e-01
  -5.0790348e-01
  -5.2163348e-01
  -4.9874348e-01
  -4.8806348e-01
  -4.4839348e-01
  -5.1248348e-01
  -5.1095348e-01
  -5.2774348e-01
  -4.9722348e-01
  -4.7280348e-01
  -5.0485348e-01
  -5.0790348e-01
  -5.0485348e-01
  -4.8196348e-01
  -4.9112348e-01
  -5.2163348e-01
  -5.2011348e-01
  -5.0332348e-01
  -5.2774348e-01
  -4.8349348e-01
  -5.0485348e-01
  -4.8349348e-01
  -4.9264348e-01
  -4.8196348e-01
  -4.9112348e-01
  -5.2163348e-01
  -5.4910348e-01
  -4.7738348e-01
  -4.7586348e-01
  -5.2011348e-01
  -4.9417348e-01
  -5.0790348e-01
  -4.9569348e-01
  -5.0180348e-01
  -5.3231348e-01
  -5.3079348e-01
  -5.2163348e-01
  -5.1248348e-01
  -5.3689348e-01
  -5.1095348e-01
  -4.8043348e-01
  -3.9041348e-01
  -3.2022348e-01
  -2.2256348e-01
  -1.1117348e-01
  -2.8334783e-03
   9.0236522e-02
   1.0854652e-01
   1.0244652e-01
   5.6676522e-02
   3.2665217e-03
  -7.1503478e-02
  -9.1343478e-02
  -1.6458348e-01
  -3.5379348e-01
  -5.3079348e-01
  -7.0932348e-01
  -8.5275348e-01
  -8.5122348e-01
  -7.8408348e-01
  -7.4289348e-01
  -6.7270348e-01
  -6.4523348e-01
  -6.2387348e-01
  -6.0403348e-01
  -5.5673348e-01
  -5.2774348e-01
  -5.1095348e-01
  -4.5755348e-01
  -4.8196348e-01
  -4.5144348e-01
  -4.5602348e-01
  -4.7128348e-01
  -4.5602348e-01
  -4.2093348e-01
  -4.5449348e-01
  -4.5755348e-01
  -4.4839348e-01
  -4.5449348e-01
  -4.4076348e-01
  -4.4381348e-01
  -4.6670348e-01
  -4.2245348e-01
  -4.4686348e-01
  -4.7128348e-01
  -4.5144348e-01
  -4.6365348e-01
  -4.3618348e-01
  -4.1635348e-01
  -4.2550348e-01
  -4.3466348e-01
  -4.4839348e-01
  -4.0261348e-01
  -4.2398348e-01
  -4.3008348e-01
  -4.2703348e-01
  -4.1330348e-01
  -4.2093348e-01
  -4.4992348e-01
  -4.3161348e-01
  -4.1940348e-01
  -4.0109348e-01
  -4.4534348e-01
  -4.2245348e-01
  -3.9041348e-01
  -3.8736348e-01
  -4.1482348e-01
  -3.9499348e-01
  -4.2550348e-01
  -4.1482348e-01
  -3.8583348e-01
  -3.7820348e-01
  -4.0719348e-01
  -3.7973348e-01
  -3.9041348e-01
  -3.8125348e-01
  -3.8125348e-01
  -3.9193348e-01
  -3.8888348e-01
  -3.8430348e-01
  -3.7057348e-01
  -3.8736348e-01
  -3.7057348e-01
  -3.8125348e-01
  -3.4005348e-01
  -3.7515348e-01
  -3.4463348e-01
  -3.6905348e-01
  -3.5379348e-01
  -3.6294348e-01
  -3.4463348e-01
  -3.3853348e-01
  -3.4616348e-01
  -3.4921348e-01
  -3.8583348e-01
  -4.1177348e-01
  -3.1869348e-01
  -3.2937348e-01
  -3.4921348e-01
  -2.9275348e-01
  -3.1564348e-01
  -3.0801348e-01
  -3.1106348e-01
  -3.2327348e-01
  -3.0496348e-01
  -3.1411348e-01
  -3.0648348e-01
  -2.9580348e-01
  -3.1259348e-01
  -3.1106348e-01
  -2.8817348e-01
  -3.1564348e-01
  -3.0496348e-01
  -2.8970348e-01
  -2.7291348e-01
  -2.7597348e-01
  -2.5155348e-01
  -2.8817348e-01
  -2.8817348e-01
  -2.7749348e-01
  -2.6376348e-01
  -2.3935348e-01
  -2.4392348e-01
  -2.5766348e-01
  -2.5155348e-01
  -2.8970348e-01
  -2.2409348e-01
  -2.4240348e-01
  -2.2561348e-01
  -1.9357348e-01
  -1.7526348e-01
  -2.1646348e-01
  -2.2256348e-01
  -1.6916348e-01
  -2.0578348e-01
  -1.7831348e-01
  -1.7526348e-01
  -1.9509348e-01
  -1.6610348e-01
  -1.8594348e-01
  -1.4779348e-01
  -1.7526348e-01
  -1.7831348e-01
  -1.6000348e-01
  -1.6458348e-01
  -1.7526348e-01
  -1.5847348e-01
  -1.7984348e-01
  -1.7221348e-01
  -1.6610348e-01
  -1.2033348e-01
  -1.4932348e-01
  -1.4016348e-01
  -1.3253348e-01
  -1.5695348e-01
  -1.4779348e-01
  -1.8136348e-01
  -1.5084348e-01
  -1.6458348e-01
  -1.7526348e-01
  -1.9204348e-01
  -1.9204348e-01
  -1.9815348e-01
  -2.1646348e-01
  -2.7291348e-01
  -2.2561348e-01
  -2.8360348e-01
  -2.6376348e-01
  -2.4697348e-01
  -3.0496348e-01
  -2.8817348e-01
  -2.9275348e-01
  -3.1411348e-01
  -3.2327348e-01
  -3.1564348e-01
  -3.5073348e-01
  -3.5379348e-01
  -3.2174348e-01
  -3.6905348e-01
  -3.6599348e-01
  -3.6599348e-01
  -3.8736348e-01
  -3.9041348e-01
  -3.9193348e-01
  -3.9651348e-01
  -4.0261348e-01
  -4.2855348e-01
  -4.0872348e-01
  -3.6447348e-01
  -4.1940348e-01
  -3.9346348e-01
  -4.0872348e-01
  -4.3161348e-01
  -3.9804348e-01
  -3.7515348e-01
  -3.9956348e-01
  -4.0719348e-01
  -4.3161348e-01
  -4.2398348e-01
  -4.2855348e-01
  -4.0567348e-01
  -4.3466348e-01
  -4.3466348e-01
  -3.9041348e-01
  -4.0719348e-01
  -4.0872348e-01
  -4.0567348e-01
  -3.7973348e-01
  -4.1177348e-01
  -4.0567348e-01
  -3.9804348e-01
  -4.2398348e-01
  -4.3161348e-01
  -4.1177348e-01
  -3.9346348e-01
  -4.1482348e-01
  -3.8736348e-01
  -3.9956348e-01
  -3.9956348e-01
  -4.1787348e-01
  -4.0567348e-01
  -4.1330348e-01
  -4.0872348e-01
  -4.3924348e-01
  -4.2093348e-01
  -4.0567348e-01
  -4.1940348e-01
  -4.0567348e-01
  -4.4229348e-01
  -4.3618348e-01
  -4.0567348e-01
  -4.5449348e-01
  -3.9346348e-01
  -3.8888348e-01
  -4.0567348e-01
  -4.2703348e-01
  -4.3771348e-01
  -4.5755348e-01
  -3.8736348e-01
  -4.0719348e-01
  -4.0719348e-01
  -4.2703348e-01
  -4.0414348e-01
  -3.8125348e-01
  -4.2398348e-01
  -4.3618348e-01
  -4.2398348e-01
  -4.0567348e-01
  -4.3008348e-01
  -4.4381348e-01
  -4.3466348e-01
  -4.1787348e-01
  -4.1940348e-01
  -4.3924348e-01
  -4.2093348e-01
  -4.2855348e-01
  -4.1330348e-01
  -4.2398348e-01
  -4.6060348e-01
  -4.1635348e-01
  -4.4076348e-01
  -4.4686348e-01
  -4.4534348e-01
  -4.3771348e-01
  -4.2093348e-01
  -4.3466348e-01
  -4.3771348e-01
  -4.2398348e-01
  -4.5297348e-01
  -4.8959348e-01
  -4.5144348e-01
  -4.1940348e-01
  -4.2245348e-01
  -4.5449348e-01
  -4.4992348e-01
  -4.3771348e-01
  -4.3161348e-01
  -4.4076348e-01
  -4.2703348e-01
  -4.3008348e-01
  -4.2703348e-01
  -4.5602348e-01
  -4.5755348e-01
  -4.4381348e-01
  -4.5144348e-01
  -4.6060348e-01
  -4.6975348e-01
  -4.1787348e-01
  -4.7738348e-01
  -4.6060348e-01
  -4.4839348e-01
  -4.5297348e-01
  -4.4992348e-01
  -4.2703348e-01
  -4.4839348e-01
  -4.6212348e-01
  -4.9112348e-01
  -4.0567348e-01
  -4.1330348e-01
  -4.5755348e-01
  -4.6518348e-01
  -4.2398348e-01
  -4.5144348e-01
  -4.6975348e-01
  -4.4839348e-01
  -4.5449348e-01
  -4.1635348e-01
  -4.4076348e-01
  -4.7128348e-01
  -4.6975348e-01
  -4.1940348e-01
  -4.7128348e-01
  -4.8806348e-01
  -4.0719348e-01
  -4.1635348e-01
  -4.5907348e-01
  -4.4686348e-01
  -4.4076348e-01
  -4.1940348e-01
  -4.2855348e-01
  -4.5449348e-01
  -4.6518348e-01
  -4.5755348e-01
  -4.1177348e-01
  -4.4381348e-01
  -4.7738348e-01
  -4.6670348e-01
  -3.9956348e-01
  -4.5297348e-01
  -4.4076348e-01
  -4.2703348e-01
  -4.4076348e-01
  -4.3618348e-01
  -4.5297348e-01
  -4.3618348e-01
  -4.3161348e-01
  -4.8043348e-01
  -4.5297348e-01
  -4.2245348e-01
  -4.3924348e-01
  -4.4686348e-01
  -4.2855348e-01
  -4.3466348e-01
  -4.2703348e-01
  -4.5602348e-01
  -4.6365348e-01
  -4.5297348e-01
  -4.4534348e-01
  -4.7128348e-01
  -4.0719348e-01
  -4.1940348e-01
  -4.4686348e-01
  -4.4992348e-01
  -4.1177348e-01
  -4.2855348e-01
  -4.2855348e-01
  -4.5602348e-01
  -3.8583348e-01
  -3.9804348e-01
  -4.3008348e-01
  -4.0872348e-01
  -4.3008348e-01
  -3.9804348e-01
  -4.3008348e-01
  -4.2398348e-01
  -4.0414348e-01
  -4.0109348e-01
  -3.8736348e-01
  -4.0567348e-01
  -4.4076348e-01
  -4.3161348e-01
  -3.8888348e-01
  -4.3008348e-01
  -3.3242348e-01
  -3.6599348e-01
  -3.8736348e-01
  -3.7667348e-01
  -3.3242348e-01
  -3.7362348e-01
  -3.7973348e-01
  -3.8430348e-01
  -3.8888348e-01
  -3.6905348e-01
  -3.8125348e-01
  -3.6752348e-01
  -3.6905348e-01
  -3.8888348e-01
  -3.4616348e-01
  -3.8125348e-01
  -4.1330348e-01
  -3.8125348e-01
  -4.0872348e-01
  -4.5449348e-01
  -4.1635348e-01
  -4.0719348e-01
  -4.5449348e-01
  -4.6518348e-01
  -4.5449348e-01
  -4.4534348e-01
  -4.2398348e-01
  -4.3466348e-01
  -4.5297348e-01
  -4.5144348e-01
  -4.6060348e-01
  -4.7891348e-01
  -5.1553348e-01
  -4.1940348e-01
  -4.0872348e-01
  -4.1940348e-01
  -4.4229348e-01
  -4.4839348e-01
  -4.3008348e-01
  -4.5297348e-01
  -4.0414348e-01
  -4.6670348e-01
  -4.4686348e-01
  -4.2703348e-01
  -4.2093348e-01
  -4.4992348e-01
  -4.4076348e-01
  -4.2398348e-01
  -4.3771348e-01
  -4.7128348e-01
  -4.5755348e-01
  -4.4534348e-01
  -4.4381348e-01
  -4.5449348e-01
  -4.4229348e-01
  -4.3161348e-01
  -4.3771348e-01
  -4.4686348e-01
  -4.5144348e-01
  -4.8959348e-01
  -4.2093348e-01
  -4.7891348e-01
  -4.6670348e-01
  -4.7128348e-01
  -4.3618348e-01
  -4.6365348e-01
  -4.5907348e-01
  -3.7057348e-01
  -3.2632348e-01
  -2.3935348e-01
  -1.5847348e-01
  -5.4713478e-02
   9.3665217e-03
   7.0406522e-02
   1.4059652e-01
   1.1160652e-01
   3.0736522e-02
   3.3786522e-02
  -9.1343478e-02
  -1.3406348e-01
  -1.5695348e-01
  -3.2937348e-01
  -5.2468348e-01
  -6.6659348e-01
  -7.4136348e-01
  -7.5204348e-01
  -6.9253348e-01
  -6.5438348e-01
  -5.9030348e-01
  -5.7504348e-01
  -5.2774348e-01
  -5.2163348e-01
  -4.9722348e-01
  -4.8196348e-01
  -4.5602348e-01
  -4.3618348e-01
  -4.1787348e-01
  -3.7515348e-01
  -3.8278348e-01
  -4.0719348e-01
  -4.1024348e-01
  -3.8583348e-01
  -3.9346348e-01
  -3.8736348e-01
  -3.9651348e-01
  -3.8430348e-01
  -3.9651348e-01
  -3.7057348e-01
  -3.9041348e-01
  -4.0109348e-01
  -3.8583348e-01
  -3.8430348e-01
  -3.9651348e-01
  -3.7362348e-01
  -3.5531348e-01
  -3.8125348e-01
  -4.0567348e-01
  -3.7667348e-01
  -3.8278348e-01
  -3.8125348e-01
  -3.4616348e-01
  -3.9499348e-01
  -3.4158348e-01
  -3.6905348e-01
  -3.3853348e-01
  -3.3853348e-01
  -3.5989348e-01
  -3.4768348e-01
  -3.5379348e-01
  -3.5684348e-01
  -3.3853348e-01
  -3.5531348e-01
  -3.4616348e-01
  -3.4921348e-01
  -3.3853348e-01
  -3.3548348e-01
  -3.2785348e-01
  -3.1869348e-01
  -3.5531348e-01
  -3.5989348e-01
  -3.1869348e-01
  -3.1259348e-01
  -2.9885348e-01
  -3.3242348e-01
  -3.0954348e-01
  -3.0648348e-01
  -3.2785348e-01
  -3.2937348e-01
  -3.1106348e-01
  -3.2479348e-01
  -3.0038348e-01
  -3.1259348e-01
  -3.1259348e-01
  -2.7749348e-01
  -2.6834348e-01
  -2.9275348e-01
  -3.1717348e-01
  -2.7902348e-01
  -2.8665348e-01
  -3.0954348e-01
  -2.4392348e-01
  -2.4545348e-01
  -2.6529348e-01
  -2.5003348e-01
  -2.2409348e-01
  -2.5155348e-01
  -2.5613348e-01
  -2.3782348e-01
  -2.5155348e-01
  -2.5766348e-01
  -2.2866348e-01
  -2.4087348e-01
  -2.3324348e-01
  -2.1798348e-01
  -2.0730348e-01
  -2.2561348e-01
  -2.2866348e-01
  -2.1188348e-01
  -2.2409348e-01
  -2.1341348e-01
  -1.8289348e-01
  -2.1798348e-01
  -1.6763348e-01
  -1.7221348e-01
  -1.5695348e-01
  -1.5542348e-01
  -1.7678348e-01
  -1.4169348e-01
  -1.5237348e-01
  -1.6610348e-01
  -1.6153348e-01
  -1.6153348e-01
  -1.7373348e-01
  -1.2185348e-01
  -8.5233478e-02
  -1.3406348e-01
  -1.4627348e-01
  -1.0812348e-01
  -1.0507348e-01
  -1.1880348e-01
  -1.1270348e-01
  -7.4553478e-02
  -8.6763478e-02
  -9.4393478e-02
  -7.9133478e-02
  -8.2183478e-02
  -8.8283478e-02
  -1.0812348e-01
  -8.6763478e-02
  -6.6923478e-02
  -7.1503478e-02
  -7.1503478e-02
  -9.4393478e-02
  -8.0653478e-02
  -8.2183478e-02
  -7.4553478e-02
  -5.4713478e-02
  -7.7603478e-02
  -8.0653478e-02
  -6.0823478e-02
  -5.6243478e-02
  -8.8283478e-02
  -9.1343478e-02
  -9.5913478e-02
  -7.3023478e-02
  -1.1728348e-01
  -1.4322348e-01
  -1.2643348e-01
  -1.6153348e-01
  -1.7984348e-01
  -1.7831348e-01
  -1.6000348e-01
  -2.0272348e-01
  -1.9967348e-01
  -1.8747348e-01
  -1.9204348e-01
  -2.0730348e-01
  -2.3172348e-01
  -2.5460348e-01
  -2.4697348e-01
  -2.6834348e-01
  -2.8665348e-01
  -3.0648348e-01
  -3.2174348e-01
  -2.9123348e-01
  -3.2937348e-01
  -3.7057348e-01
  -2.5918348e-01
  -3.1411348e-01
  -3.4768348e-01
  -2.9885348e-01
  -3.0801348e-01
  -3.3853348e-01
  -3.3242348e-01
  -3.0801348e-01
  -3.2632348e-01
  -3.5073348e-01
  -3.3395348e-01
  -3.4158348e-01
  -3.5379348e-01
  -3.3700348e-01
  -3.6294348e-01
  -3.4921348e-01
  -3.4463348e-01
  -3.2632348e-01
  -3.5379348e-01
  -3.3700348e-01
  -3.4005348e-01
  -3.3700348e-01
  -3.5073348e-01
  -3.2174348e-01
  -3.3548348e-01
  -3.4158348e-01
  -3.2632348e-01
  -3.3242348e-01
  -3.3395348e-01
  -3.5379348e-01
  -3.4005348e-01
  -2.9123348e-01
  -3.2785348e-01
  -3.2479348e-01
  -3.3090348e-01
  -3.3242348e-01
  -3.3395348e-01
  -3.2937348e-01
  -3.4463348e-01
  -3.8430348e-01
  -3.5989348e-01
  -3.2785348e-01
  -3.2785348e-01
  -3.2327348e-01
  -3.4311348e-01
  -3.4158348e-01
  -3.5684348e-01
  -3.3548348e-01
  -3.1411348e-01
  -3.6142348e-01
  -3.5836348e-01
  -3.6294348e-01
  -3.3395348e-01
  -3.5379348e-01
  -3.4921348e-01
  -3.6905348e-01
  -3.1564348e-01
  -3.0648348e-01
  -3.4768348e-01
  -3.7820348e-01
  -3.2785348e-01
  -3.3853348e-01
  -3.6142348e-01
  -3.4921348e-01
  -3.4768348e-01
  -3.6599348e-01
  -3.6294348e-01
  -3.1259348e-01
  -3.4158348e-01
  -3.4616348e-01
  -3.5989348e-01
  -3.6447348e-01
  -3.9346348e-01
  -3.5073348e-01
  -3.5379348e-01
  -3.4921348e-01
  -3.4616348e-01
  -3.5379348e-01
  -3.5379348e-01
  -3.7362348e-01
  -3.4768348e-01
  -3.4158348e-01
  -3.4158348e-01
  -3.6752348e-01
  -3.7210348e-01
  -3.7057348e-01
  -3.7057348e-01
  -3.3395348e-01
  -3.3853348e-01
  -3.9193348e-01
  -3.5531348e-01
  -3.6599348e-01
  -3.7667348e-01
  -3.4616348e-01
  -3.9651348e-01
  -3.8583348e-01
  -3.9651348e-01
  -3.5379348e-01
  -3.9346348e-01
  -3.4005348e-01
  -3.5989348e-01
  -3.5836348e-01
  -3.5836348e-01
  -3.4768348e-01
  -3.6599348e-01
  -3.7210348e-01
  -3.7362348e-01
  -3.4005348e-01
  -3.5531348e-01
  -3.7515348e-01
  -3.6294348e-01
  -3.7515348e-01
  -3.9193348e-01
  -3.7362348e-01
  -3.8736348e-01
  -4.0261348e-01
  -3.6752348e-01
  -3.4616348e-01
  -3.8888348e-01
  -3.5836348e-01
  -3.5836348e-01
  -3.6752348e-01
  -3.8583348e-01
  -3.6905348e-01
  -3.6599348e-01
  -3.8125348e-01
  -3.8583348e-01
  -3.7973348e-01
  -3.6599348e-01
  -3.4921348e-01
  -3.7362348e-01
  -3.6905348e-01
  -3.8278348e-01
  -3.8736348e-01
  -3.9346348e-01
  -3.7973348e-01
  -3.7973348e-01
  -3.6752348e-01
  -3.8736348e-01
  -3.8125348e-01
  -3.4616348e-01
  -3.7362348e-01
  -3.9956348e-01
  -3.6599348e-01
  -3.7973348e-01
  -3.9499348e-01
  -3.6905348e-01
  -3.7973348e-01
  -3.6752348e-01
  -3.5379348e-01
  -3.7362348e-01
  -3.8430348e-01
  -3.8430348e-01
  -3.8888348e-01
  -3.8278348e-01
  -3.6142348e-01
  -3.6294348e-01
  -3.6752348e-01
  -3.7820348e-01
  -3.6294348e-01
  -3.6599348e-01
  -3.7057348e-01
  -3.7362348e-01
  -3.8125348e-01
  -3.9651348e-01
  -4.1482348e-01
  -3.7057348e-01
  -3.6447348e-01
  -3.5989348e-01
  -3.4768348e-01
  -3.5531348e-01
  -3.7057348e-01
  -3.7362348e-01
  -3.5073348e-01
  -3.6294348e-01
  -3.7667348e-01
  -3.9193348e-01
  -3.2937348e-01
  -3.5379348e-01
  -3.7973348e-01
  -3.9193348e-01
  -4.0719348e-01
  -3.6599348e-01
  -3.0801348e-01
  -3.2937348e-01
  -3.6599348e-01
  -3.3395348e-01
  -3.4005348e-01
  -3.4768348e-01
  -3.5073348e-01
  -3.2327348e-01
  -3.2174348e-01
  -3.4768348e-01
  -3.2785348e-01
  -3.4463348e-01
  -3.7362348e-01
  -3.7820348e-01
  -3.2174348e-01
  -2.9123348e-01
  -3.1564348e-01
  -3.0648348e-01
  -2.9580348e-01
  -3.1869348e-01
  -3.1411348e-01
  -3.0954348e-01
  -3.2479348e-01
  -3.5836348e-01
  -3.1106348e-01
  -3.1411348e-01
  -2.6986348e-01
  -2.8054348e-01
  -3.1564348e-01
  -3.1869348e-01
  -2.8360348e-01
  -3.0191348e-01
  -3.1869348e-01
  -3.1564348e-01
  -2.9123348e-01
  -3.2327348e-01
  -3.4005348e-01
  -3.4463348e-01
  -3.8125348e-01
  -3.8583348e-01
  -3.8736348e-01
  -3.8583348e-01
  -3.7820348e-01
  -3.9346348e-01
  -3.4921348e-01
  -3.8888348e-01
  -3.7667348e-01
  -4.0567348e-01
  -3.5684348e-01
  -3.7362348e-01
  -3.5989348e-01
  -3.6599348e-01
  -3.9499348e-01
  -4.0719348e-01
  -3.7973348e-01
  -3.6142348e-01
  -3.7667348e-01
  -3.7820348e-01
  -3.7973348e-01
  -3.7973348e-01
  -3.7515348e-01
  -3.7667348e-01
  -3.8430348e-01
  -3.8888348e-01
  -3.6599348e-01
  -3.6447348e-01
  -3.9499348e-01
  -3.9041348e-01
  -3.9499348e-01
  -3.9956348e-01
  -3.5989348e-01
  -3.8583348e-01
  -3.9499348e-01
  -3.8430348e-01
  -3.9193348e-01
  -3.8583348e-01
  -4.1940348e-01
  -4.1330348e-01
  -3.6599348e-01
  -3.7667348e-01
  -4.1482348e-01
  -3.8430348e-01
  -3.6142348e-01
  -3.2479348e-01
  -2.5766348e-01
  -1.8594348e-01
  -1.3101348e-01
  -1.0463478e-02
   2.9206522e-02
   8.1086522e-02
   1.2533652e-01
   1.4211652e-01
   8.2606522e-02
   6.3165217e-03
  -3.9463478e-02
  -1.0354348e-01
  -1.6610348e-01
  -2.6376348e-01
  -4.0414348e-01
  -5.7046348e-01
  -6.6812348e-01
  -6.5744348e-01
  -6.2387348e-01
  -5.4910348e-01
  -4.8501348e-01
  -4.2550348e-01
  -4.4076348e-01
  -4.0109348e-01
  -3.8888348e-01
  -3.6905348e-01
  -3.4921348e-01
  -3.6905348e-01
  -3.2479348e-01
  -3.2022348e-01
  -3.2327348e-01
  -3.5379348e-01
  -3.3090348e-01
  -3.2937348e-01
  -3.1564348e-01
  -3.4463348e-01
  -3.4616348e-01
  -3.2479348e-01
  -3.4616348e-01
  -3.3395348e-01
  -3.1106348e-01
  -3.3242348e-01
  -3.5379348e-01
  -3.8736348e-01
  -3.4768348e-01
  -2.9580348e-01
  -3.0191348e-01
  -3.2479348e-01
  -3.1717348e-01
  -3.0954348e-01
  -3.0648348e-01
  -3.1106348e-01
  -3.2479348e-01
  -2.8512348e-01
  -3.2479348e-01
  -2.9733348e-01
  -2.7597348e-01
  -3.0343348e-01
  -3.0801348e-01
  -3.0648348e-01
  -3.1106348e-01
  -2.9123348e-01
  -2.9123348e-01
  -2.8207348e-01
  -2.8207348e-01
  -2.8360348e-01
  -2.9275348e-01
  -2.8970348e-01
  -2.9580348e-01
  -2.9428348e-01
  -2.7291348e-01
  -2.8512348e-01
  -2.7444348e-01
  -2.7597348e-01
  -2.4240348e-01
  -2.6529348e-01
  -2.8665348e-01
  -2.4697348e-01
  -2.6529348e-01
  -2.5766348e-01
  -2.4240348e-01
  -2.3477348e-01
  -2.5460348e-01
  -2.4087348e-01
  -2.6376348e-01
  -2.6223348e-01
  -2.6681348e-01
  -2.4850348e-01
  -2.0425348e-01
  -2.2866348e-01
  -2.3782348e-01
  -2.1188348e-01
  -2.2409348e-01
  -2.3019348e-01
  -2.1188348e-01
  -2.1493348e-01
  -2.2714348e-01
  -2.1798348e-01
  -1.9815348e-01
  -1.6610348e-01
  -1.8289348e-01
  -1.8441348e-01
  -2.0425348e-01
  -1.8441348e-01
  -1.9204348e-01
  -1.9509348e-01
  -1.8289348e-01
  -1.8747348e-01
  -1.7068348e-01
  -1.6458348e-01
  -1.6000348e-01
  -1.1575348e-01
  -1.5695348e-01
  -1.4322348e-01
  -1.1880348e-01
  -1.4627348e-01
  -1.3253348e-01
  -1.0812348e-01
  -1.2796348e-01
  -1.2643348e-01
  -1.0507348e-01
  -1.2643348e-01
  -1.2185348e-01
  -8.2183478e-02
  -6.9973478e-02
  -1.1728348e-01
  -8.3713478e-02
  -7.6083478e-02
  -6.0823478e-02
  -6.8453478e-02
  -5.7773478e-02
  -7.6083478e-02
  -1.0507348e-01
  -4.0983478e-02
  -6.3873478e-02
  -5.3193478e-02
  -4.2513478e-02
  -4.5563478e-02
  -3.6403478e-02
  -5.9293478e-02
  -4.5563478e-02
  -3.7933478e-02
  -2.7253478e-02
  -3.6403478e-02
  -3.6403478e-02
  -1.6573478e-02
  -3.9463478e-02
  -3.0303478e-02
  -3.9463478e-02
  -2.4203478e-02
  -2.5723478e-02
  -2.1143478e-02
  -6.8453478e-02
  -4.0983478e-02
  -4.2513478e-02
  -3.9463478e-02
  -6.0823478e-02
  -6.3873478e-02
  -8.2183478e-02
  -9.4393478e-02
  -9.5913478e-02
  -1.1880348e-01
  -1.3253348e-01
  -1.4016348e-01
  -1.5084348e-01
  -1.5847348e-01
  -1.7678348e-01
  -1.6305348e-01
  -2.1035348e-01
  -2.1341348e-01
  -1.8289348e-01
  -2.1035348e-01
  -2.1951348e-01
  -2.2256348e-01
  -2.2714348e-01
  -2.5460348e-01
  -2.3782348e-01
  -3.1411348e-01
  -2.8360348e-01
  -2.2409348e-01
  -2.3477348e-01
  -2.5766348e-01
  -3.1259348e-01
  -2.6223348e-01
  -2.4545348e-01
  -2.8970348e-01
  -2.9428348e-01
  -2.6223348e-01
  -2.7597348e-01
  -2.9123348e-01
  -2.9580348e-01
  -2.9275348e-01
  -2.8207348e-01
  -2.5918348e-01
  -2.6376348e-01
  -2.8360348e-01
  -2.7749348e-01
  -2.9123348e-01
  -2.6986348e-01
  -2.8665348e-01
  -2.9885348e-01
  -2.7902348e-01
  -3.0801348e-01
  -2.6529348e-01
  -2.6071348e-01
  -2.8054348e-01
  -2.6986348e-01
  -2.6834348e-01
  -2.8970348e-01
  -2.8512348e-01
  -2.6071348e-01
  -2.6223348e-01
  -2.9428348e-01
  -2.8360348e-01
  -2.8054348e-01
  -2.9733348e-01
  -2.7291348e-01
  -2.6071348e-01
  -2.8512348e-01
  -2.8360348e-01
  -2.6529348e-01
  -2.9275348e-01
  -2.9733348e-01
  -2.8360348e-01
  -2.8970348e-01
  -2.8970348e-01
  -2.9885348e-01
  -2.5155348e-01
  -2.7444348e-01
  -2.6834348e-01
  -2.7444348e-01
  -2.9428348e-01
  -2.6529348e-01
  -2.8512348e-01
  -2.9580348e-01
  -2.8054348e-01
  -2.7902348e-01
  -2.8665348e-01
  -2.6376348e-01
  -3.0191348e-01
  -2.7902348e-01
  -2.8817348e-01
  -2.9275348e-01
  -2.7291348e-01
  -2.7444348e-01
  -2.7749348e-01
  -2.8665348e-01
  -2.8665348e-01
  -2.8817348e-01
  -2.9885348e-01
  -2.7902348e-01
  -2.7902348e-01
  -2.9580348e-01
  -2.8360348e-01
  -2.9428348e-01
  -3.0801348e-01
  -2.8817348e-01
  -3.1869348e-01
  -2.9123348e-01
  -2.8512348e-01
  -3.0343348e-01
  -3.0343348e-01
  -3.0038348e-01
  -2.9275348e-01
  -2.9428348e-01
  -2.9580348e-01
  -2.9275348e-01
  -3.1869348e-01
  -3.0343348e-01
  -3.1259348e-01
  -3.3853348e-01
  -2.6376348e-01
  -2.9580348e-01
  -2.9885348e-01
  -3.1259348e-01
  -3.0191348e-01
  -2.7902348e-01
  -3.1411348e-01
  -3.0191348e-01
  -3.0038348e-01
  -3.0801348e-01
  -3.2785348e-01
  -3.2174348e-01
  -2.9885348e-01
  -3.0801348e-01
  -3.1411348e-01
  -3.0648348e-01
  -3.0954348e-01
  -3.2937348e-01
  -2.9885348e-01
  -3.1717348e-01
  -2.8207348e-01
  -3.2174348e-01
  -3.3090348e-01
  -2.9428348e-01
  -3.4005348e-01
  -3.1869348e-01
  -3.1106348e-01
  -3.0496348e-01
  -3.2174348e-01
  -3.1411348e-01
  -2.9733348e-01
  -3.2785348e-01
  -3.0343348e-01
  -3.1411348e-01
  -2.9885348e-01
  -2.9580348e-01
  -3.1259348e-01
  -3.2937348e-01
  -3.2937348e-01
  -3.1717348e-01
  -3.0954348e-01
  -3.0038348e-01
  -3.0038348e-01
  -3.0191348e-01
  -3.4005348e-01
  -2.9428348e-01
  -3.1411348e-01
  -3.1106348e-01
  -3.1564348e-01
  -3.1411348e-01
  -2.9275348e-01
  -3.3548348e-01
  -3.1717348e-01
  -3.2937348e-01
  -3.2479348e-01
  -3.0038348e-01
  -2.9428348e-01
  -2.9428348e-01
  -3.2632348e-01
  -3.0954348e-01
  -2.9885348e-01
  -3.3395348e-01
  -3.2937348e-01
  -3.4158348e-01
  -3.2479348e-01
  -2.8665348e-01
  -3.1717348e-01
  -3.0496348e-01
  -3.1106348e-01
  -2.9733348e-01
  -3.0343348e-01
  -3.1259348e-01
  -3.0954348e-01
  -3.1717348e-01
  -3.3395348e-01
  -3.1259348e-01
  -3.2479348e-01
  -3.3242348e-01
  -2.8665348e-01
  -3.0648348e-01
  -3.0191348e-01
  -3.1564348e-01
  -3.2327348e-01
  -3.1106348e-01
  -3.0648348e-01
  -3.2479348e-01
  -3.2327348e-01
  -3.0038348e-01
  -2.9123348e-01
  -2.8054348e-01
  -2.9428348e-01
  -3.0038348e-01
  -3.0191348e-01
  -2.8817348e-01
  -3.1564348e-01
  -3.1259348e-01
  -2.9733348e-01
  -3.1564348e-01
  -3.1106348e-01
  -3.0801348e-01
  -3.0801348e-01
  -3.3242348e-01
  -2.9580348e-01
  -2.7902348e-01
  -3.2937348e-01
  -2.9733348e-01
  -3.2174348e-01
  -3.2479348e-01
  -3.1564348e-01
  -3.0801348e-01
  -2.9123348e-01
  -2.9885348e-01
  -3.0343348e-01
  -3.3853348e-01
  -2.8970348e-01
  -2.9123348e-01
  -3.2174348e-01
  -3.2327348e-01
  -2.7597348e-01
  -3.0496348e-01
  -2.6834348e-01
  -2.9428348e-01
  -3.0191348e-01
  -2.9580348e-01
  -2.6529348e-01
  -2.8054348e-01
  -2.6376348e-01
  -2.8665348e-01
  -2.9428348e-01
  -2.7597348e-01
  -2.9123348e-01
  -2.8207348e-01
  -2.6223348e-01
  -2.7444348e-01
  -2.7444348e-01
  -2.6681348e-01
  -2.7444348e-01
  -2.8054348e-01
  -2.9733348e-01
  -2.1188348e-01
  -2.1951348e-01
  -2.4240348e-01
  -2.2256348e-01
  -2.3172348e-01
  -2.4697348e-01
  -2.4087348e-01
  -2.3477348e-01
  -2.5003348e-01
  -2.7902348e-01
  -2.4087348e-01
  -2.1188348e-01
  -2.2866348e-01
  -2.2256348e-01
  -2.3782348e-01
  -2.2103348e-01
  -2.2714348e-01
  -2.5308348e-01
  -2.7444348e-01
  -2.5918348e-01
  -2.4850348e-01
  -2.6986348e-01
  -3.0801348e-01
  -3.1259348e-01
  -3.5073348e-01
  -3.2785348e-01
  -3.0496348e-01
  -3.1106348e-01
  -3.1717348e-01
  -3.1411348e-01
  -3.4616348e-01
  -3.3548348e-01
  -3.0801348e-01
  -2.9580348e-01
  -3.2174348e-01
  -3.1869348e-01
  -3.2327348e-01
  -3.1869348e-01
  -3.3090348e-01
  -3.1717348e-01
  -3.2022348e-01
  -3.2174348e-01
  -3.5531348e-01
  -2.9885348e-01
  -3.0038348e-01
  -3.5531348e-01
  -3.4311348e-01
  -3.2174348e-01
  -3.0954348e-01
  -3.2479348e-01
  -3.1411348e-01
  -3.3090348e-01
  -3.4768348e-01
  -3.1564348e-01
  -2.9123348e-01
  -3.2632348e-01
  -3.1564348e-01
  -2.9580348e-01
  -3.2479348e-01
  -3.2937348e-01
  -3.1717348e-01
  -3.1106348e-01
  -3.4311348e-01
  -3.3700348e-01
  -3.5379348e-01
  -3.3853348e-01
  -3.4158348e-01
  -3.4311348e-01
  -2.6834348e-01
  -2.3782348e-01
  -1.7373348e-01
  -1.0507348e-01
   4.9046522e-02
   7.0406522e-02
   1.5432652e-01
   1.9552652e-01
   2.2756652e-01
   1.4517652e-01
   1.0092652e-01
   1.0092652e-01
   1.3946522e-02
  -8.5233478e-02
  -1.9357348e-01
  -2.7444348e-01
  -4.3618348e-01
  -5.5673348e-01
  -5.8419348e-01
  -5.6436348e-01
  -4.6975348e-01
  -4.6212348e-01
  -3.8736348e-01
  -3.3242348e-01
  -3.1106348e-01
  -3.2327348e-01
  -2.6986348e-01
  -2.8054348e-01
  -2.6071348e-01
  -2.5918348e-01
  -2.8817348e-01
  -2.5918348e-01
  -2.4240348e-01
  -2.5613348e-01
  -2.7597348e-01
  -2.6376348e-01
  -2.6223348e-01
  -2.7444348e-01
  -2.7597348e-01
  -2.8512348e-01
  -2.5918348e-01
  -2.8360348e-01
  -2.7597348e-01
  -2.8512348e-01
  -2.9123348e-01
  -2.7291348e-01
  -2.1951348e-01
  -2.4240348e-01
  -2.6223348e-01
  -2.5460348e-01
  -2.4087348e-01
  -2.5918348e-01
  -2.4392348e-01
  -2.3935348e-01
  -2.5613348e-01
  -2.4850348e-01
  -2.4850348e-01
  -2.4240348e-01
  -2.1493348e-01
  -2.5003348e-01
  -2.6834348e-01
  -2.5155348e-01
  -2.3629348e-01
  -2.0578348e-01
  -2.2714348e-01
  -2.1493348e-01
  -2.3324348e-01
  -2.4392348e-01
  -2.1341348e-01
  -2.0425348e-01
  -2.2103348e-01
  -2.0730348e-01
  -2.1341348e-01
  -2.0272348e-01
  -2.0578348e-01
  -2.1798348e-01
  -2.4087348e-01
  -2.1951348e-01
  -1.9357348e-01
  -2.0730348e-01
  -1.8899348e-01
  -1.9357348e-01
  -1.6763348e-01
  -1.7831348e-01
  -1.8899348e-01
  -1.9815348e-01
  -1.6916348e-01
  -1.8136348e-01
  -1.9662348e-01
  -1.6305348e-01
  -1.4169348e-01
  -1.6763348e-01
  -1.5542348e-01
  -1.4932348e-01
  -1.8441348e-01
  -1.5542348e-01
  -1.6153348e-01
  -1.5084348e-01
  -1.2948348e-01
  -1.3711348e-01
  -1.4627348e-01
  -1.3559348e-01
  -1.5542348e-01
  -1.1575348e-01
  -1.2796348e-01
  -1.3101348e-01
  -8.9813478e-02
  -1.0659348e-01
  -1.0812348e-01
  -9.8963478e-02
  -8.6763478e-02
  -1.0202348e-01
  -1.0049348e-01
  -8.5233478e-02
  -8.6763478e-02
  -8.8283478e-02
  -7.9133478e-02
  -7.4553478e-02
  -6.0823478e-02
  -6.2343478e-02
  -6.3873478e-02
  -3.9463478e-02
  -6.0823478e-02
  -2.4203478e-02
  -3.9463478e-02
  -2.7253478e-02
  -1.1993478e-02
  -8.9434783e-03
  -8.9434783e-03
  -1.8093478e-02
  -1.8093478e-02
  -8.9434783e-03
  -1.6573478e-02
   3.2665217e-03
  -2.5723478e-02
   3.6836522e-02
  -4.3634783e-03
   2.4626522e-02
   3.5306522e-02
   4.7965217e-03
   1.5476522e-02
   3.2665217e-03
   4.1416522e-02
   6.3165217e-03
   6.3165217e-03
   3.3786522e-02
   1.2416522e-02
   1.8526522e-02
   3.6836522e-02
   2.4626522e-02
   7.8465217e-03
   2.6156522e-02
   1.5476522e-02
   1.5476522e-02
   3.0736522e-02
   4.4466522e-02
   1.0896522e-02
  -1.0463478e-02
   7.8465217e-03
  -2.4203478e-02
  -3.3353478e-02
  -7.4134783e-03
  -4.8613478e-02
  -5.6243478e-02
  -5.3193478e-02
  -6.6923478e-02
  -6.6923478e-02
  -7.9133478e-02
  -9.2863478e-02
  -1.0507348e-01
  -1.2033348e-01
  -1.0659348e-01
  -1.3253348e-01
  -1.4627348e-01
  -1.6000348e-01
  -1.7831348e-01
  -1.7831348e-01
  -1.9662348e-01
  -1.7831348e-01
  -1.6916348e-01
  -1.9357348e-01
  -1.9815348e-01
  -1.8594348e-01
  -1.8747348e-01
  -2.1646348e-01
  -2.1035348e-01
  -2.2103348e-01
  -2.3477348e-01
  -2.3324348e-01
  -2.1646348e-01
  -2.1951348e-01
  -2.3782348e-01
  -2.0578348e-01
  -2.1035348e-01
  -2.3477348e-01
  -2.1035348e-01
  -2.1188348e-01
  -1.9662348e-01
  -2.0120348e-01
  -1.9662348e-01
  -2.2103348e-01
  -2.3324348e-01
  -2.0730348e-01
  -2.0425348e-01
  -2.1341348e-01
  -2.0883348e-01
  -2.2561348e-01
  -2.1188348e-01
  -2.1341348e-01
  -2.5003348e-01
  -2.2561348e-01
  -2.1035348e-01
  -2.1493348e-01
  -2.0272348e-01
  -2.3324348e-01
  -2.1035348e-01
  -1.9815348e-01
  -2.1798348e-01
  -2.1341348e-01
  -1.8594348e-01
  -1.9509348e-01
  -2.0272348e-01
  -2.0425348e-01
  -2.2409348e-01
  -2.2256348e-01
  -2.1188348e-01
  -2.6529348e-01
  -2.2256348e-01
  -2.0272348e-01
  -1.9509348e-01
  -2.0272348e-01
  -1.9967348e-01
  -2.2103348e-01
  -2.1188348e-01
  -2.2103348e-01
  -2.0272348e-01
  -2.2103348e-01
  -2.2561348e-01
  -2.0883348e-01
  -2.3019348e-01
  -2.4545348e-01
  -2.3477348e-01
  -2.3324348e-01
  -2.0272348e-01
  -2.1188348e-01
  -2.1798348e-01
  -2.1493348e-01
  -2.1341348e-01
  -2.2103348e-01
  -2.3782348e-01
  -2.0120348e-01
  -2.1493348e-01
  -2.1341348e-01
  -2.0883348e-01
  -2.2866348e-01
  -2.2714348e-01
  -2.1646348e-01
  -2.5460348e-01
  -2.2866348e-01
  -2.3324348e-01
  -2.6223348e-01
  -1.9815348e-01
  -2.2714348e-01
  -2.3324348e-01
  -2.4240348e-01
  -2.1341348e-01
  -2.2409348e-01
  -2.3629348e-01
  -2.2866348e-01
  -2.4697348e-01
  -2.5003348e-01
  -2.6681348e-01
  -2.3782348e-01
  -2.3324348e-01
  -2.4850348e-01
  -2.5003348e-01
  -2.2409348e-01
  -2.6223348e-01
  -2.2714348e-01
  -2.3629348e-01
  -2.3782348e-01
  -2.2409348e-01
  -2.3477348e-01
  -2.4240348e-01
  -2.6529348e-01
  -2.3172348e-01
  -2.1798348e-01
  -2.5155348e-01
  -2.5766348e-01
  -2.3324348e-01
  -2.3477348e-01
  -2.4697348e-01
  -2.3782348e-01
  -2.3172348e-01
  -2.6834348e-01
  -2.2409348e-01
  -2.5155348e-01
  -2.5460348e-01
  -2.4545348e-01
  -2.3172348e-01
  -2.1493348e-01
  -2.4850348e-01
  -2.6986348e-01
  -2.6376348e-01
  -2.2714348e-01
  -2.4697348e-01
  -2.2561348e-01
  -2.3629348e-01
  -2.2714348e-01
  -2.5155348e-01
  -2.5918348e-01
  -2.6071348e-01
  -2.3477348e-01
  -2.4087348e-01
  -2.5003348e-01
  -2.5766348e-01
  -2.2866348e-01
  -2.5308348e-01
  -2.2866348e-01
  -2.4087348e-01
  -2.5308348e-01
  -2.5155348e-01
  -2.5460348e-01
  -2.2714348e-01
  -2.5918348e-01
  -2.4545348e-01
  -2.3782348e-01
  -2.6834348e-01
  -2.5460348e-01
  -2.5460348e-01
  -2.5460348e-01
  -2.6986348e-01
  -2.9123348e-01
  -2.0883348e-01
  -2.4697348e-01
  -2.3324348e-01
  -2.4850348e-01
  -2.6376348e-01
  -2.2866348e-01
  -2.3629348e-01
  -2.2256348e-01
  -2.4392348e-01
  -2.5003348e-01
  -2.4240348e-01
  -2.7597348e-01
  -2.5003348e-01
  -2.5003348e-01
  -2.3629348e-01
  -2.4697348e-01
  -2.4697348e-01
  -2.6529348e-01
  -2.4392348e-01
  -2.3477348e-01
  -2.2866348e-01
  -2.4392348e-01
  -2.4240348e-01
  -2.3629348e-01
  -2.5308348e-01
  -2.3935348e-01
  -2.4850348e-01
  -2.6529348e-01
  -2.5155348e-01
  -2.4240348e-01
  -2.4850348e-01
  -2.5308348e-01
  -2.6681348e-01
  -2.4697348e-01
  -2.6834348e-01
  -2.3935348e-01
  -2.6071348e-01
  -2.5308348e-01
  -2.6223348e-01
  -2.5003348e-01
  -2.2714348e-01
  -2.5613348e-01
  -2.5308348e-01
  -2.3935348e-01
  -2.6834348e-01
  -2.6529348e-01
  -2.8207348e-01
  -2.4240348e-01
  -2.4240348e-01
  -2.5766348e-01
  -2.2256348e-01
  -2.5460348e-01
  -2.8360348e-01
  -2.2866348e-01
  -2.2103348e-01
  -2.4392348e-01
  -2.5613348e-01
  -2.2866348e-01
  -2.2256348e-01
  -2.2866348e-01
  -2.3782348e-01
  -2.4087348e-01
  -2.5003348e-01
  -2.5613348e-01
  -2.5918348e-01
  -2.4697348e-01
  -2.3629348e-01
  -2.4392348e-01
  -2.4697348e-01
  -2.3324348e-01
  -2.2561348e-01
  -2.4697348e-01
  -2.5155348e-01
  -2.5155348e-01
  -2.5308348e-01
  -2.5766348e-01
  -2.1341348e-01
  -2.4240348e-01
  -2.6223348e-01
  -2.6529348e-01
  -2.2409348e-01
  -2.3935348e-01
  -2.4240348e-01
  -2.4087348e-01
  -2.5460348e-01
  -2.5155348e-01
  -2.8207348e-01
  -2.0120348e-01
  -2.4392348e-01
  -2.4240348e-01
  -2.3782348e-01
  -2.3782348e-01
  -2.2409348e-01
  -2.3935348e-01
  -2.4850348e-01
  -2.4392348e-01
  -2.3629348e-01
  -2.3324348e-01
  -2.5613348e-01
  -2.4697348e-01
  -2.1646348e-01
  -2.6223348e-01
  -2.6986348e-01
  -1.8594348e-01
  -2.3019348e-01
  -2.3782348e-01
  -2.3782348e-01
  -2.5308348e-01
  -2.2714348e-01
  -2.0883348e-01
  -2.1951348e-01
  -2.2103348e-01
  -2.3629348e-01
  -2.2256348e-01
  -2.3782348e-01
  -2.3019348e-01
  -2.3629348e-01
  -2.3324348e-01
  -2.2409348e-01
  -2.1798348e-01
  -2.3782348e-01
  -2.7597348e-01
  -1.8747348e-01
  -2.0578348e-01
  -2.3782348e-01
  -2.2256348e-01
  -2.2866348e-01
  -2.0425348e-01
  -2.0272348e-01
  -1.9204348e-01
  -1.8899348e-01
  -2.1188348e-01
  -2.1188348e-01
  -2.1646348e-01
  -2.1341348e-01
  -2.0730348e-01
  -2.0883348e-01
  -2.0883348e-01
  -1.9357348e-01
  -1.8289348e-01
  -1.7068348e-01
  -1.6305348e-01
  -1.6610348e-01
  -1.4627348e-01
  -1.5542348e-01
  -1.4779348e-01
  -1.6153348e-01
  -1.6916348e-01
  -1.6153348e-01
  -1.6000348e-01
  -1.8594348e-01
  -1.6763348e-01
  -1.8136348e-01
  -1.7221348e-01
  -1.7831348e-01
  -1.9357348e-01
  -1.9815348e-01
  -2.2561348e-01
  -2.5155348e-01
  -2.4240348e-01
  -2.3935348e-01
  -2.4087348e-01
  -2.7597348e-01
  -2.1798348e-01
  -2.3935348e-01
  -2.4697348e-01
  -2.3629348e-01
  -2.4240348e-01
  -2.5460348e-01
  -2.3477348e-01
  -2.6071348e-01
  -2.8665348e-01
  -2.6071348e-01
  -2.9428348e-01
  -2.3019348e-01
  -2.5918348e-01
  -2.6376348e-01
  -2.6376348e-01
  -2.6529348e-01
  -2.4392348e-01
  -2.3324348e-01
  -2.6834348e-01
  -2.3629348e-01
  -2.6834348e-01
  -2.5003348e-01
  -2.7444348e-01
  -2.7444348e-01
  -2.4697348e-01
  -2.1951348e-01
  -2.3019348e-01
  -2.3324348e-01
  -2.3019348e-01
  -2.7444348e-01
  -2.3172348e-01
  -2.4392348e-01
  -2.4697348e-01
  -2.5155348e-01
  -2.5613348e-01
  -2.8054348e-01
  -2.7749348e-01
  -2.4850348e-01
  -2.8512348e-01
  -2.5613348e-01
  -2.6834348e-01
  -2.5918348e-01
  -1.9662348e-01
  -1.5847348e-01
  -8.9813478e-02
   1.3946522e-02
   9.7866522e-02
   1.5280652e-01
   2.3367652e-01
   2.7181652e-01
   3.2522652e-01
   2.7944652e-01
   3.1912652e-01
   2.4130652e-01
   1.5127652e-01
   5.5146522e-02
  -3.9463478e-02
  -2.0120348e-01
  -3.8888348e-01
  -5.3384348e-01
  -5.3384348e-01
  -4.9874348e-01
  -4.4839348e-01
  -3.9956348e-01
  -3.3700348e-01
  -2.6834348e-01
  -2.6681348e-01
  -2.7902348e-01
  -2.3629348e-01
  -1.8747348e-01
  -1.7526348e-01
  -2.0272348e-01
  -1.7831348e-01
  -2.0425348e-01
  -1.9204348e-01
  -2.0578348e-01
  -1.9967348e-01
  -1.9967348e-01
  -2.0578348e-01
  -2.1493348e-01
  -1.9815348e-01
  -2.0425348e-01
  -2.1188348e-01
  -2.1798348e-01
  -2.0730348e-01
  -2.0730348e-01
  -1.6000348e-01
  -1.9357348e-01
  -1.9204348e-01
  -1.7831348e-01
  -1.8594348e-01
  -1.8899348e-01
  -1.9967348e-01
  -1.7526348e-01
  -1.7221348e-01
  -1.8747348e-01
  -1.9509348e-01
  -1.7373348e-01
  -1.8747348e-01
  -1.4779348e-01
  -1.5237348e-01
  -1.6763348e-01
  -1.7373348e-01
  -1.7526348e-01
  -1.5237348e-01
  -1.6458348e-01
  -1.5237348e-01
  -1.4016348e-01
  -1.7221348e-01
  -1.7678348e-01
  -1.4474348e-01
  -1.4779348e-01
  -1.3101348e-01
  -1.2643348e-01
  -1.2490348e-01
  -1.3864348e-01
  -1.3101348e-01
  -1.4322348e-01
  -1.3101348e-01
  -1.4627348e-01
  -1.2490348e-01
  -1.3864348e-01
  -1.1728348e-01
  -1.2338348e-01
  -1.2948348e-01
  -1.1728348e-01
  -8.8283478e-02
  -9.8963478e-02
  -1.1880348e-01
  -1.1575348e-01
  -1.0659348e-01
  -1.2033348e-01
  -1.0354348e-01
  -9.5913478e-02
  -1.0202348e-01
  -8.9813478e-02
  -8.0653478e-02
  -7.3023478e-02
  -9.7443478e-02
  -7.6083478e-02
  -7.9133478e-02
  -9.7443478e-02
  -5.4713478e-02
  -5.7773478e-02
  -8.5233478e-02
  -7.3023478e-02
  -6.9973478e-02
  -8.9434783e-03
  -1.1993478e-02
  -4.2513478e-02
  -4.4033478e-02
  -3.1833478e-02
  -5.1663478e-02
  -2.4203478e-02
  -3.3353478e-02
  -1.3134783e-03
   1.6996522e-02
   4.7965217e-03
  -1.8093478e-02
  -4.3634783e-03
   7.8465217e-03
   1.5476522e-02
   1.2416522e-02
   2.7676522e-02
   2.7676522e-02
   3.2256522e-02
   3.8356522e-02
   8.2606522e-02
   2.4626522e-02
   4.9046522e-02
   5.5146522e-02
   3.8356522e-02
   4.9046522e-02
   7.1926522e-02
   6.7356522e-02
   7.4986522e-02
   8.2606522e-02
   1.0397652e-01
   7.4986522e-02
   4.2936522e-02
   8.5666522e-02
   9.7866522e-02
   5.8196522e-02
   1.2533652e-01
   8.8716522e-02
   1.0397652e-01
   1.0854652e-01
   1.1770652e-01
   9.1766522e-02
   1.1007652e-01
   9.3296522e-02
   1.0092652e-01
   1.1923652e-01
   9.9396522e-02
   7.9556522e-02
   6.8876522e-02
   1.2380652e-01
   1.1770652e-01
   9.7866522e-02
   7.9556522e-02
   9.3296522e-02
   7.8036522e-02
   7.1926522e-02
   6.5826522e-02
   3.0736522e-02
   4.4466522e-02
   5.0566522e-02
   4.9046522e-02
   1.8526522e-02
   4.7965217e-03
   7.8465217e-03
   6.3165217e-03
  -2.5723478e-02
  -5.0143478e-02
  -5.6243478e-02
  -5.9293478e-02
  -3.4883478e-02
  -6.9973478e-02
  -7.6083478e-02
  -8.5233478e-02
  -9.2863478e-02
  -1.3101348e-01
  -1.0354348e-01
  -1.0659348e-01
  -9.8963478e-02
  -1.3101348e-01
  -1.2948348e-01
  -1.0659348e-01
  -1.3101348e-01
  -1.4169348e-01
  -1.4169348e-01
  -1.5847348e-01
  -1.5084348e-01
  -1.3711348e-01
  -1.5695348e-01
  -1.4779348e-01
  -1.6153348e-01
  -1.0202348e-01
  -1.3101348e-01
  -1.4779348e-01
  -1.3864348e-01
  -1.6763348e-01
  -1.3253348e-01
  -1.3711348e-01
  -1.6153348e-01
  -1.2033348e-01
  -1.5695348e-01
  -1.4627348e-01
  -1.3253348e-01
  -1.3711348e-01
  -1.2643348e-01
  -1.2490348e-01
  -1.3864348e-01
  -1.3559348e-01
  -1.4779348e-01
  -1.4474348e-01
  -1.2796348e-01
  -1.3711348e-01
  -1.3406348e-01
  -1.4169348e-01
  -1.2796348e-01
  -1.4169348e-01
  -1.3864348e-01
  -1.4932348e-01
  -1.7068348e-01
  -1.6916348e-01
  -9.4393478e-02
  -1.1117348e-01
  -1.5237348e-01
  -1.2185348e-01
  -1.3559348e-01
  -1.4474348e-01
  -1.3559348e-01
  -1.5237348e-01
  -1.3406348e-01
  -1.3711348e-01
  -1.3253348e-01
  -1.4169348e-01
  -1.6153348e-01
  -1.5390348e-01
  -1.5695348e-01
  -2.1493348e-01
  -1.4169348e-01
  -1.5084348e-01
  -1.4322348e-01
  -1.4932348e-01
  -1.3559348e-01
  -1.3253348e-01
  -1.6000348e-01
  -1.6610348e-01
  -1.6763348e-01
  -1.7373348e-01
  -1.2948348e-01
  -1.4779348e-01
  -1.6305348e-01
  -1.9509348e-01
  -1.6305348e-01
  -1.5847348e-01
  -1.6305348e-01
  -1.6916348e-01
  -1.7526348e-01
  -1.4322348e-01
  -1.4779348e-01
  -1.6000348e-01
  -1.7373348e-01
  -1.7984348e-01
  -1.8136348e-01
  -1.7068348e-01
  -1.7373348e-01
  -1.5847348e-01
  -1.7678348e-01
  -1.7221348e-01
  -1.7221348e-01
  -1.7221348e-01
  -1.7678348e-01
  -1.7678348e-01
  -1.6916348e-01
  -1.5084348e-01
  -1.7526348e-01
  -1.8899348e-01
  -1.7984348e-01
  -1.9662348e-01
  -1.6305348e-01
  -1.6305348e-01
  -1.8289348e-01
  -1.9662348e-01
  -1.7984348e-01
  -1.5695348e-01
  -2.1035348e-01
  -2.1341348e-01
  -1.8289348e-01
  -1.8747348e-01
  -1.6610348e-01
  -1.6000348e-01
  -1.9357348e-01
  -1.8136348e-01
  -1.7984348e-01
  -1.8747348e-01
  -1.9815348e-01
  -1.7831348e-01
  -1.5847348e-01
  -1.9357348e-01
  -1.9357348e-01
  -1.9967348e-01
  -1.7984348e-01
  -1.8289348e-01
  -1.7831348e-01
  -1.5847348e-01
  -2.1035348e-01
  -1.8594348e-01
  -1.7068348e-01
  -1.7678348e-01
  -1.8289348e-01
  -1.9815348e-01
  -1.9662348e-01
  -1.7068348e-01
  -1.8289348e-01
  -1.8136348e-01
  -1.9509348e-01
  -2.1493348e-01
  -1.9815348e-01
  -1.9204348e-01
  -1.8289348e-01
  -2.0272348e-01
  -2.3172348e-01
  -2.0730348e-01
  -2.0120348e-01
  -1.6305348e-01
  -1.7831348e-01
  -1.9509348e-01
  -1.8441348e-01
  -1.9204348e-01
  -1.7984348e-01
  -1.9815348e-01
  -2.1188348e-01
  -1.8136348e-01
  -2.0272348e-01
  -2.1188348e-01
  -1.8899348e-01
  -1.6916348e-01
  -1.8899348e-01
  -2.0883348e-01
  -1.7526348e-01
  -1.8594348e-01
  -2.0120348e-01
  -1.7984348e-01
  -1.7221348e-01
  -1.9662348e-01
  -1.9815348e-01
  -1.8441348e-01
  -1.7221348e-01
  -1.9509348e-01
  -1.7068348e-01
  -1.9204348e-01
  -1.9509348e-01
  -1.8899348e-01
  -1.8594348e-01
  -2.0272348e-01
  -2.1035348e-01
  -1.9204348e-01
  -2.1341348e-01
  -2.1035348e-01
  -1.8441348e-01
  -2.1493348e-01
  -2.0272348e-01
  -1.9357348e-01
  -2.0425348e-01
  -1.6305348e-01
  -1.8899348e-01
  -2.1188348e-01
  -2.1951348e-01
  -1.9662348e-01
  -1.7221348e-01
  -1.8594348e-01
  -1.9967348e-01
  -1.9815348e-01
  -2.2103348e-01
  -1.9509348e-01
  -1.8594348e-01
  -1.8899348e-01
  -2.0120348e-01
  -1.9509348e-01
  -1.8136348e-01
  -1.8136348e-01
  -1.8899348e-01
  -1.8747348e-01
  -1.7984348e-01
  -1.7831348e-01
  -1.9509348e-01
  -1.9815348e-01
  -1.8747348e-01
  -2.0883348e-01
  -2.1188348e-01
  -1.6916348e-01
  -1.8289348e-01
  -2.0425348e-01
  -1.8136348e-01
  -1.8594348e-01
  -2.2256348e-01
  -2.0272348e-01
  -1.9357348e-01
  -1.8747348e-01
  -1.7526348e-01
  -1.9662348e-01
  -2.0272348e-01
  -2.0120348e-01
  -1.8747348e-01
  -1.6916348e-01
  -1.9815348e-01
  -1.9662348e-01
  -2.0883348e-01
  -2.0425348e-01
  -2.1341348e-01
  -1.7984348e-01
  -1.9967348e-01
  -1.5847348e-01
  -1.6916348e-01
  -1.7678348e-01
  -2.0578348e-01
  -1.9815348e-01
  -2.0272348e-01
  -2.1188348e-01
  -2.2561348e-01
  -1.8594348e-01
  -1.9204348e-01
  -2.0120348e-01
  -1.8441348e-01
  -1.8136348e-01
  -1.9509348e-01
  -1.8899348e-01
  -1.8594348e-01
  -1.9357348e-01
  -1.9509348e-01
  -1.7221348e-01
  -1.7221348e-01
  -1.8289348e-01
  -1.6000348e-01
  -1.6458348e-01
  -1.8441348e-01
  -1.8899348e-01
  -1.9357348e-01
  -1.5237348e-01
  -1.5542348e-01
  -1.3711348e-01
  -1.6000348e-01
  -1.6305348e-01
  -1.8136348e-01
  -1.5847348e-01
  -1.5542348e-01
  -1.6000348e-01
  -1.4779348e-01
  -1.4169348e-01
  -1.3559348e-01
  -1.1728348e-01
  -1.2643348e-01
  -1.5084348e-01
  -1.4627348e-01
  -1.4322348e-01
  -1.3101348e-01
  -1.1880348e-01
  -1.0659348e-01
  -1.4779348e-01
  -1.2796348e-01
  -1.3711348e-01
  -1.6610348e-01
  -1.5084348e-01
  -9.4393478e-02
  -1.2033348e-01
  -1.5084348e-01
  -1.2185348e-01
  -1.5084348e-01
  -1.4322348e-01
  -1.8136348e-01
  -2.3477348e-01
  -1.9204348e-01
  -1.9357348e-01
  -2.2561348e-01
  -2.0272348e-01
  -2.2256348e-01
  -2.1798348e-01
  -1.9357348e-01
  -2.1798348e-01
  -1.9357348e-01
  -1.9662348e-01
  -2.2256348e-01
  -2.2866348e-01
  -2.2561348e-01
  -2.0425348e-01
  -2.3324348e-01
  -1.8289348e-01
  -2.0120348e-01
  -2.2409348e-01
  -2.1035348e-01
  -2.1951348e-01
  -2.2561348e-01
  -1.9662348e-01
  -2.1798348e-01
  -2.1646348e-01
  -2.1493348e-01
  -2.0425348e-01
  -2.0425348e-01
  -2.3172348e-01
  -2.0120348e-01
  -2.0425348e-01
  -2.1951348e-01
  -2.2103348e-01
  -2.0883348e-01
  -2.1035348e-01
  -2.3172348e-01
  -2.1951348e-01
  -2.4392348e-01
  -2.5613348e-01
  -2.2866348e-01
  -2.0272348e-01
  -2.0730348e-01
  -2.3324348e-01
  -2.2256348e-01
  -2.1798348e-01
  -2.4392348e-01
  -1.9815348e-01
  -1.7678348e-01
  -8.0653478e-02
   3.5306522e-02
   1.2380652e-01
   2.1993652e-01
   2.8402652e-01
   3.6337652e-01
   3.8320652e-01
   3.5116652e-01
   3.0538652e-01
   2.8707652e-01
   1.3601652e-01
   1.8484652e-01
   7.4986522e-02
  -1.0354348e-01
  -3.0954348e-01
  -4.9874348e-01
  -5.5215348e-01
  -5.5673348e-01
  -4.7586348e-01
  -4.0261348e-01
  -3.6294348e-01
  -3.6752348e-01
  -3.4616348e-01
  -2.7902348e-01
  -2.6681348e-01
  -2.2103348e-01
  -1.9662348e-01
  -1.6458348e-01
  -2.1341348e-01
  -1.7373348e-01
  -1.7831348e-01
  -1.1880348e-01
  -1.4474348e-01
  -1.5542348e-01
  -1.6458348e-01
  -1.6763348e-01
  -1.7831348e-01
  -1.7678348e-01
  -1.7068348e-01
  -1.7831348e-01
  -1.6458348e-01
  -1.7373348e-01
  -1.5084348e-01
  -1.6000348e-01
  -1.8747348e-01
  -1.3253348e-01
  -1.4627348e-01
  -2.0272348e-01
  -1.5542348e-01
  -1.4322348e-01
  -1.7678348e-01
  -1.7984348e-01
  -1.4169348e-01
  -1.4016348e-01
  -1.4627348e-01
  -1.3864348e-01
  -1.2490348e-01
  -1.6000348e-01
  -1.3406348e-01
  -1.4627348e-01
  -1.5542348e-01
  -1.8289348e-01
  -1.4627348e-01
  -1.2185348e-01
  -1.4016348e-01
  -1.2643348e-01
  -1.5695348e-01
  -1.1575348e-01
  -1.3559348e-01
  -1.0507348e-01
  -1.3559348e-01
  -6.5403478e-02
  -1.0659348e-01
  -1.0202348e-01
  -1.2796348e-01
  -1.0202348e-01
  -1.0049348e-01
  -1.1728348e-01
  -1.0659348e-01
  -1.0049348e-01
  -1.1575348e-01
  -7.4553478e-02
  -9.1343478e-02
  -8.2183478e-02
  -8.5233478e-02
  -9.8963478e-02
  -8.2183478e-02
  -9.1343478e-02
  -7.3023478e-02
  -6.9973478e-02
  -1.0507348e-01
  -6.0823478e-02
  -5.9293478e-02
  -1.2185348e-01
  -4.5563478e-02
  -2.4203478e-02
  -7.1503478e-02
  -6.5403478e-02
  -4.5563478e-02
  -3.1833478e-02
  -4.5563478e-02
  -4.0983478e-02
  -3.6403478e-02
  -5.9293478e-02
  -3.1833478e-02
  -2.4203478e-02
  -1.3134783e-03
  -2.8334783e-03
  -2.4203478e-02
  -2.7253478e-02
  -2.1143478e-02
  -1.6573478e-02
   7.8465217e-03
   6.3165217e-03
   1.6996522e-02
   2.6156522e-02
   2.7676522e-02
   4.2936522e-02
   2.1576522e-02
   2.1576522e-02
   5.3616522e-02
   2.9206522e-02
   4.7516522e-02
   3.5306522e-02
   5.6676522e-02
   5.0566522e-02
   7.3456522e-02
   5.5146522e-02
   5.8196522e-02
   9.9396522e-02
   1.0244652e-01
   6.7356522e-02
   8.8716522e-02
   1.0092652e-01
   9.9396522e-02
   1.0244652e-01
   1.0397652e-01
   6.4296522e-02
   7.3456522e-02
   9.3296522e-02
   1.0092652e-01
   1.2838652e-01
   1.1160652e-01
   1.2686652e-01
   1.2380652e-01
   1.2533652e-01
   1.1160652e-01
   1.0549652e-01
   1.2686652e-01
   1.0854652e-01
   1.2838652e-01
   7.6506522e-02
   1.4822652e-01
   9.7866522e-02
   9.6346522e-02
   1.4974652e-01
   1.1160652e-01
   1.2991652e-01
   8.2606522e-02
   8.5666522e-02
   6.7356522e-02
   5.5146522e-02
   5.5146522e-02
   5.0566522e-02
   1.8526522e-02
   1.6996522e-02
   1.5476522e-02
  -8.9434783e-03
  -2.7253478e-02
  -4.2513478e-02
  -8.0653478e-02
  -8.9434783e-03
  -3.9463478e-02
  -8.6763478e-02
  -6.8453478e-02
  -8.0653478e-02
  -7.7603478e-02
  -9.1343478e-02
  -8.3713478e-02
  -1.1880348e-01
  -1.3101348e-01
  -1.2643348e-01
  -1.0507348e-01
  -1.3406348e-01
  -9.5913478e-02
  -1.1422348e-01
  -1.1728348e-01
  -1.2490348e-01
  -1.1422348e-01
  -1.1422348e-01
  -1.3864348e-01
  -1.4627348e-01
  -1.4169348e-01
  -1.3864348e-01
  -1.4016348e-01
  -1.4169348e-01
  -1.2948348e-01
  -1.6458348e-01
  -1.3559348e-01
  -1.3864348e-01
  -1.4474348e-01
  -1.3559348e-01
  -1.4474348e-01
  -1.2490348e-01
  -1.3253348e-01
  -1.2948348e-01
  -1.5237348e-01
  -1.5237348e-01
  -1.4627348e-01
  -1.3711348e-01
  -1.5237348e-01
  -1.3101348e-01
  -1.6458348e-01
  -1.5390348e-01
  -1.4932348e-01
  -1.2185348e-01
  -1.2338348e-01
  -1.3711348e-01
  -1.1575348e-01
  -1.4169348e-01
  -1.3406348e-01
  -1.2643348e-01
  -1.4016348e-01
  -1.2796348e-01
  -1.4779348e-01
  -1.4169348e-01
  -1.6153348e-01
  -1.5390348e-01
  -1.7678348e-01
  -1.2185348e-01
  -1.3101348e-01
  -1.5847348e-01
  -1.2643348e-01
  -1.6000348e-01
  -1.3864348e-01
  -1.2490348e-01
  -1.3253348e-01
  -1.6458348e-01
  -1.5695348e-01
  -1.3559348e-01
  -1.6153348e-01
  -1.5390348e-01
  -1.5695348e-01
  -1.5084348e-01
  -1.6763348e-01
  -1.7068348e-01
  -1.3559348e-01
  -1.6916348e-01
  -1.7526348e-01
  -1.3711348e-01
  -1.8441348e-01
  -1.3711348e-01
  -1.2185348e-01
  -1.8747348e-01
  -1.7678348e-01
  -1.4016348e-01
  -1.3711348e-01
  -1.6610348e-01
  -1.6458348e-01
  -1.5847348e-01
  -1.4779348e-01
  -1.4779348e-01
  -1.6153348e-01
  -1.6305348e-01
  -1.6763348e-01
  -1.5390348e-01
  -1.7984348e-01
  -1.8136348e-01
  -1.7373348e-01
  -1.5542348e-01
  -2.0883348e-01
  -1.7526348e-01
  -1.6916348e-01
  -1.8136348e-01
  -1.8594348e-01
  -1.4932348e-01
  -1.5237348e-01
  -1.6610348e-01
  -1.4932348e-01
  -1.7068348e-01
  -1.8594348e-01
  -1.8136348e-01
  -1.7984348e-01
  -1.6000348e-01
  -1.8289348e-01
  -1.7526348e-01
  -1.5237348e-01
  -2.1493348e-01
  -1.8594348e-01
  -1.5695348e-01
  -1.5542348e-01
  -1.8289348e-01
  -1.8289348e-01
  -2.1798348e-01
  -2.0120348e-01
  -1.5695348e-01
  -1.6000348e-01
  -1.8594348e-01
  -1.7373348e-01
  -1.8136348e-01
  -2.1341348e-01
  -1.9509348e-01
  -1.7984348e-01
  -1.5847348e-01
  -1.5695348e-01
  -1.6916348e-01
  -1.5390348e-01
  -1.6610348e-01
  -1.7984348e-01
  -1.6458348e-01
  -1.8594348e-01
  -1.7373348e-01
  -1.7526348e-01
  -1.6916348e-01
  -2.1341348e-01
  -1.6153348e-01
  -1.8441348e-01
  -1.8747348e-01
  -1.8747348e-01
  -1.8747348e-01
  -1.8136348e-01
  -1.6916348e-01
  -2.0272348e-01
  -1.7526348e-01
  -1.7831348e-01
  -1.7373348e-01
  -1.5695348e-01
  -1.7984348e-01
  -1.9509348e-01
  -2.2714348e-01
  -1.8747348e-01
  -1.7221348e-01
  -1.5390348e-01
  -1.8289348e-01
  -1.8594348e-01
  -1.6763348e-01
  -2.0578348e-01
  -1.7526348e-01
  -1.6153348e-01
  -1.8441348e-01
  -2.1798348e-01
  -1.5390348e-01
  -1.8441348e-01
  -1.8289348e-01
  -1.7984348e-01
  -1.7373348e-01
  -1.7068348e-01
  -1.8289348e-01
  -1.8289348e-01
  -1.7678348e-01
  -1.9815348e-01
  -2.1646348e-01
  -1.8289348e-01
  -1.6763348e-01
  -1.8594348e-01
  -1.8441348e-01
  -1.8899348e-01
  -1.9357348e-01
  -1.6458348e-01
  -1.6610348e-01
  -1.7678348e-01
  -1.7678348e-01
  -1.8136348e-01
  -1.8899348e-01
  -1.8289348e-01
  -1.7373348e-01
  -1.3253348e-01
  -1.9815348e-01
  -1.8747348e-01
  -1.9204348e-01
  -1.7678348e-01
  -1.8289348e-01
  -1.9662348e-01
  -1.8747348e-01
  -1.8136348e-01
  -1.8747348e-01
  -1.7526348e-01
  -1.7678348e-01
  -1.9662348e-01
  -1.7678348e-01
  -1.6000348e-01
  -1.6610348e-01
  -1.8747348e-01
  -1.6763348e-01
  -2.0730348e-01
  -1.6916348e-01
  -1.6916348e-01
  -1.8289348e-01
  -1.7068348e-01
  -1.7831348e-01
  -1.7526348e-01
  -1.6458348e-01
  -1.6610348e-01
  -1.5695348e-01
  -1.6153348e-01
  -1.4627348e-01
  -1.4932348e-01
  -1.7984348e-01
  -1.5847348e-01
  -1.3559348e-01
  -1.6610348e-01
  -1.3559348e-01
  -1.5390348e-01
  -1.6000348e-01
  -1.3559348e-01
  -1.5084348e-01
  -1.2948348e-01
  -1.7221348e-01
  -1.0049348e-01
  -1.1880348e-01
  -1.2643348e-01
  -1.2490348e-01
  -1.0812348e-01
  -1.2643348e-01
  -1.1422348e-01
  -1.1880348e-01
  -1.1728348e-01
  -1.0659348e-01
  -9.8963478e-02
  -1.2948348e-01
  -1.2796348e-01
  -1.0049348e-01
  -1.3253348e-01
  -1.4627348e-01
  -1.3101348e-01
  -1.3864348e-01
  -1.6153348e-01
  -1.7221348e-01
  -1.8136348e-01
  -1.9662348e-01
  -1.9815348e-01
  -1.8594348e-01
  -2.1798348e-01
  -1.9815348e-01
  -2.2256348e-01
  -1.8899348e-01
  -1.6153348e-01
  -2.3782348e-01
  -1.7831348e-01
  -1.8594348e-01
  -1.9967348e-01
  -1.9509348e-01
  -1.8899348e-01
  -1.8441348e-01
  -2.2561348e-01
  -1.9662348e-01
  -1.9967348e-01
  -1.9967348e-01
  -2.0120348e-01
  -1.9967348e-01
  -2.5003348e-01
  -2.1951348e-01
  -2.3477348e-01
  -2.0272348e-01
  -1.4932348e-01
  -1.7831348e-01
  -1.7221348e-01
  -1.9204348e-01
  -1.9815348e-01
  -2.0272348e-01
  -1.9509348e-01
  -1.8441348e-01
  -1.6916348e-01
  -1.9662348e-01
  -2.1035348e-01
  -2.0425348e-01
  -1.9815348e-01
  -2.0578348e-01
  -2.3172348e-01
  -1.8747348e-01
  -2.1646348e-01
  -2.3477348e-01
  -2.1798348e-01
  -1.9509348e-01
  -1.4779348e-01
  -6.0823478e-02
   1.6996522e-02
   9.4816522e-02
   2.3977652e-01
   2.8402652e-01
   3.1606652e-01
   3.7557652e-01
   4.0151652e-01
   3.3132652e-01
   2.6876652e-01
   1.9552652e-01
   1.6195652e-01
   1.4059652e-01
  -3.9463478e-02
  -2.5155348e-01
  -3.9346348e-01
  -5.3994348e-01
  -5.5062348e-01
  -4.8196348e-01
  -4.6365348e-01
  -3.6905348e-01
  -2.9733348e-01
  -3.1106348e-01
  -2.9123348e-01
  -2.6071348e-01
  -2.4240348e-01
  -2.2714348e-01
  -1.9357348e-01
  -1.5084348e-01
  -1.3711348e-01
  -1.0507348e-01
  -1.3406348e-01
  -1.6153348e-01
  -1.4169348e-01
  -1.4322348e-01
  -1.2796348e-01
  -1.5084348e-01
  -1.4932348e-01
  -1.4169348e-01
  -1.5847348e-01
  -1.6610348e-01
  -1.5542348e-01
  -1.7068348e-01
  -1.4474348e-01
  -1.3101348e-01
  -1.1880348e-01
  -1.3101348e-01
  -1.4169348e-01
  -1.2796348e-01
  -1.2338348e-01
  -1.4779348e-01
  -1.1728348e-01
  -1.1422348e-01
  -1.3559348e-01
  -1.2643348e-01
  -1.3253348e-01
  -1.4169348e-01
  -1.3711348e-01
  -1.0659348e-01
  -1.4169348e-01
  -1.4322348e-01
  -3.3353478e-02
  -9.7443478e-02
  -1.2490348e-01
  -4.7083478e-02
  -8.2183478e-02
  -9.7443478e-02
  -9.5913478e-02
  -1.1575348e-01
  -9.4393478e-02
  -7.6083478e-02
  -8.6763478e-02
  -1.1422348e-01
  -8.8283478e-02
  -8.2183478e-02
  -8.2183478e-02
  -9.2863478e-02
  -7.9133478e-02
  -8.0653478e-02
  -9.1343478e-02
  -8.2183478e-02
  -3.9463478e-02
  -6.8453478e-02
  -6.5403478e-02
  -4.7083478e-02
  -4.8613478e-02
  -5.0143478e-02
  -4.7083478e-02
  -3.3353478e-02
  -4.4033478e-02
  -2.7253478e-02
  -2.2673478e-02
  -4.2513478e-02
  -7.3023478e-02
  -5.4713478e-02
  -4.4033478e-02
  -3.7933478e-02
  -1.5043478e-02
   1.3946522e-02
  -1.3134783e-03
  -1.1993478e-02
   1.7365217e-03
  -8.9434783e-03
   9.3665217e-03
   7.8465217e-03
  -1.5043478e-02
   1.5476522e-02
   1.6996522e-02
   4.7965217e-03
   2.0046522e-02
   4.9046522e-02
   4.2936522e-02
   4.7965217e-03
   1.2416522e-02
   6.5826522e-02
   4.2936522e-02
   5.9726522e-02
   7.1926522e-02
   6.4296522e-02
   5.3616522e-02
   8.7186522e-02
   8.2606522e-02
   9.4816522e-02
   5.9726522e-02
   8.2606522e-02
   8.8716522e-02
   9.6346522e-02
   1.1617652e-01
   1.2533652e-01
   1.1160652e-01
   8.7186522e-02
   1.0092652e-01
   1.0854652e-01
   1.6348652e-01
   1.8942652e-01
   1.3754652e-01
   1.2838652e-01
   1.2228652e-01
   1.6500652e-01
   1.6042652e-01
   1.6500652e-01
   1.8789652e-01
   1.6805652e-01
   1.5585652e-01
   1.5890652e-01
   1.5127652e-01
   1.7568652e-01
   1.8331652e-01
   1.7568652e-01
   1.3448652e-01
   1.8484652e-01
   1.9399652e-01
   1.5432652e-01
   1.8331652e-01
   1.8026652e-01
   1.6348652e-01
   1.7111652e-01
   1.4364652e-01
   1.2380652e-01
   1.2380652e-01
   1.0244652e-01
   1.1160652e-01
   9.7866522e-02
   8.2606522e-02
   6.7356522e-02
   5.8196522e-02
   2.7676522e-02
   1.8526522e-02
   3.0736522e-02
   1.7365217e-03
  -1.3134783e-03
   9.3665217e-03
  -3.7933478e-02
  -1.1993478e-02
  -3.9463478e-02
  -2.4203478e-02
  -4.0983478e-02
  -6.8453478e-02
  -5.7773478e-02
  -8.2183478e-02
  -1.1422348e-01
  -7.7603478e-02
  -9.8963478e-02
  -9.2863478e-02
  -5.6243478e-02
  -8.5233478e-02
  -1.1575348e-01
  -8.9813478e-02
  -1.1422348e-01
  -1.2185348e-01
  -1.1270348e-01
  -1.4016348e-01
  -1.1117348e-01
  -1.3101348e-01
  -1.0049348e-01
  -1.1422348e-01
  -1.1880348e-01
  -9.7443478e-02
  -8.5233478e-02
  -1.2185348e-01
  -9.2863478e-02
  -1.0049348e-01
  -1.2185348e-01
  -1.1422348e-01
  -1.0202348e-01
  -1.4322348e-01
  -1.1117348e-01
  -9.5913478e-02
  -9.4393478e-02
  -7.4553478e-02
  -9.2863478e-02
  -9.1343478e-02
  -1.0507348e-01
  -1.2338348e-01
  -9.1343478e-02
  -1.1117348e-01
  -1.1422348e-01
  -1.4016348e-01
  -1.0354348e-01
  -1.4169348e-01
  -8.6763478e-02
  -8.8283478e-02
  -9.5913478e-02
  -1.4779348e-01
  -1.4169348e-01
  -6.6923478e-02
  -1.1422348e-01
  -1.1575348e-01
  -1.0049348e-01
  -1.0049348e-01
  -1.0354348e-01
  -1.0659348e-01
  -1.2643348e-01
  -1.3253348e-01
  -8.9813478e-02
  -1.1422348e-01
  -1.1270348e-01
  -1.2033348e-01
  -1.2490348e-01
  -1.3406348e-01
  -1.1270348e-01
  -1.2643348e-01
  -1.4474348e-01
  -8.2183478e-02
  -1.0354348e-01
  -9.8963478e-02
  -9.4393478e-02
  -1.0659348e-01
  -1.1270348e-01
  -1.3253348e-01
  -1.3559348e-01
  -1.0354348e-01
  -1.2643348e-01
  -1.4016348e-01
  -1.2338348e-01
  -1.3253348e-01
  -1.2490348e-01
  -1.1880348e-01
  -1.3864348e-01
  -1.0659348e-01
  -1.2185348e-01
  -9.5913478e-02
  -1.2490348e-01
  -1.2643348e-01
  -1.1117348e-01
  -1.4169348e-01
  -1.6305348e-01
  -1.2948348e-01
  -1.6763348e-01
  -1.3253348e-01
  -1.2033348e-01
  -1.2796348e-01
  -1.3711348e-01
  -1.3253348e-01
  -1.1728348e-01
  -1.3406348e-01
  -9.7443478e-02
  -1.4169348e-01
  -1.2796348e-01
  -1.2948348e-01
  -1.4322348e-01
  -1.1880348e-01
  -1.4016348e-01
  -1.3253348e-01
  -1.4627348e-01
  -1.2643348e-01
  -1.4779348e-01
  -1.2490348e-01
  -1.3864348e-01
  -1.4627348e-01
  -1.4627348e-01
  -1.3559348e-01
  -1.4474348e-01
  -1.2185348e-01
  -1.1422348e-01
  -1.5542348e-01
  -1.6000348e-01
  -1.2338348e-01
  -1.0354348e-01
  -1.3253348e-01
  -1.5390348e-01
  -1.3253348e-01
  -1.3406348e-01
  -1.4169348e-01
  -1.2338348e-01
  -1.2338348e-01
  -1.1575348e-01
  -1.3711348e-01
  -1.6458348e-01
  -1.4322348e-01
  -1.6000348e-01
  -9.4393478e-02
  -1.4016348e-01
  -1.4169348e-01
  -1.4322348e-01
  -1.3864348e-01
  -1.3253348e-01
  -1.2796348e-01
  -1.5390348e-01
  -1.4016348e-01
  -1.1575348e-01
  -1.2948348e-01
  -1.5695348e-01
  -1.2338348e-01
  -1.1270348e-01
  -1.3406348e-01
  -1.3406348e-01
  -9.5913478e-02
  -1.4169348e-01
  -1.3711348e-01
  -1.3253348e-01
  -1.3253348e-01
  -1.5084348e-01
  -1.3101348e-01
  -1.1880348e-01
  -1.4627348e-01
  -1.3864348e-01
  -1.3406348e-01
  -1.2796348e-01
  -1.2796348e-01
  -1.2338348e-01
  -1.2948348e-01
  -1.6000348e-01
  -1.5695348e-01
  -1.3864348e-01
  -1.5390348e-01
  -1.3559348e-01
  -1.0049348e-01
  -1.2338348e-01
  -1.3406348e-01
  -1.4016348e-01
  -1.2490348e-01
  -1.3864348e-01
  -1.5084348e-01
  -1.4932348e-01
  -1.3406348e-01
  -1.3253348e-01
  -1.4627348e-01
  -1.3406348e-01
  -1.3559348e-01
  -1.3253348e-01
  -1.3101348e-01
  -1.6458348e-01
  -1.4779348e-01
  -1.3406348e-01
  -1.3864348e-01
  -1.4779348e-01
  -1.2643348e-01
  -1.3711348e-01
  -1.4627348e-01
  -1.2948348e-01
  -1.1117348e-01
  -1.2185348e-01
  -1.6610348e-01
  -1.0659348e-01
  -1.2796348e-01
  -8.6763478e-02
  -1.2796348e-01
  -1.2185348e-01
  -1.0354348e-01
  -1.3406348e-01
  -1.2338348e-01
  -1.1117348e-01
  -1.2185348e-01
  -1.0659348e-01
  -1.0659348e-01
  -9.8963478e-02
  -9.7443478e-02
  -1.0049348e-01
  -8.2183478e-02
  -9.2863478e-02
  -8.2183478e-02
  -8.2183478e-02
  -8.0653478e-02
  -5.0143478e-02
  -6.3873478e-02
  -7.7603478e-02
  -1.0354348e-01
  -7.4553478e-02
  -6.2343478e-02
  -6.2343478e-02
  -6.2343478e-02
  -8.6763478e-02
  -1.0812348e-01
  -5.1663478e-02
  -7.4553478e-02
  -4.2513478e-02
  -5.9293478e-02
  -9.7443478e-02
  -6.8453478e-02
  -8.8283478e-02
  -7.3023478e-02
  -1.2948348e-01
  -1.2948348e-01
  -1.2033348e-01
  -1.3406348e-01
  -1.6153348e-01
  -1.3559348e-01
  -1.5390348e-01
  -1.5695348e-01
  -1.4779348e-01
  -1.4016348e-01
  -1.8747348e-01
  -1.3406348e-01
  -1.4169348e-01
  -1.7068348e-01
  -1.8747348e-01
  -1.1422348e-01
  -1.5084348e-01
  -1.2185348e-01
  -1.5390348e-01
  -1.3253348e-01
  -1.6763348e-01
  -1.5390348e-01
  -1.3406348e-01
  -1.5390348e-01
  -1.3711348e-01
  -1.3711348e-01
  -1.4322348e-01
  -1.5695348e-01
  -1.5084348e-01
  -1.7526348e-01
  -1.4627348e-01
  -1.6153348e-01
  -1.4474348e-01
  -1.6305348e-01
  -1.3253348e-01
  -1.2490348e-01
  -1.3101348e-01
  -1.5542348e-01
  -1.5390348e-01
  -1.5390348e-01
  -1.5390348e-01
  -1.4474348e-01
  -1.6000348e-01
  -1.7221348e-01
  -1.7221348e-01
  -1.3406348e-01
  -1.4627348e-01
  -1.3864348e-01
  -7.1503478e-02
   3.2256522e-02
   1.0854652e-01
   1.9857652e-01
   2.6266652e-01
   3.0691652e-01
   3.7557652e-01
   3.9999652e-01
   3.6794652e-01
   3.1301652e-01
   2.9775652e-01
   2.0925652e-01
   1.1770652e-01
   1.6996522e-02
  -1.1422348e-01
  -3.0648348e-01
  -4.4076348e-01
  -4.5755348e-01
  -3.9651348e-01
  -3.5531348e-01
  -3.0801348e-01
  -2.6071348e-01
  -2.4240348e-01
  -2.0425348e-01
  -1.7678348e-01
  -1.5542348e-01
  -1.1117348e-01
  -1.3406348e-01
  -1.3559348e-01
  -9.8963478e-02
  -9.5913478e-02
  -6.9973478e-02
  -8.0653478e-02
  -1.0049348e-01
  -9.8963478e-02
  -7.1503478e-02
  -8.8283478e-02
  -8.8283478e-02
  -9.8963478e-02
  -9.2863478e-02
  -1.0049348e-01
  -8.3713478e-02
  -1.0202348e-01
  -9.4393478e-02
  -9.7443478e-02
  -1.0812348e-01
  -8.2183478e-02
  -1.0507348e-01
  -9.1343478e-02
  -7.4553478e-02
  -6.2343478e-02
  -6.3873478e-02
  -7.1503478e-02
  -6.2343478e-02
  -6.2343478e-02
  -6.8453478e-02
  -7.9133478e-02
  -6.6923478e-02
  -8.8283478e-02
  -6.3873478e-02
  -8.9813478e-02
  -6.8453478e-02
  -5.4713478e-02
  -3.9463478e-02
  -3.9463478e-02
  -5.1663478e-02
  -3.0303478e-02
  -4.7083478e-02
  -3.6403478e-02
  -5.3193478e-02
  -2.7253478e-02
  -2.2673478e-02
  -3.6403478e-02
  -5.4713478e-02
  -5.1663478e-02
  -3.7933478e-02
  -1.8093478e-02
  -3.0303478e-02
  -3.1833478e-02
  -1.3523478e-02
  -3.0303478e-02
  -1.3523478e-02
  -8.9434783e-03
  -3.1833478e-02
  -4.3634783e-03
  -1.0463478e-02
  -4.3634783e-03
   2.3106522e-02
   4.7965217e-03
  -1.1993478e-02
  -1.3523478e-02
   2.0046522e-02
   3.2256522e-02
   1.0896522e-02
   4.7965217e-03
   5.3616522e-02
   2.4626522e-02
   3.6836522e-02
   3.3786522e-02
   2.3106522e-02
   4.2936522e-02
   4.9046522e-02
   2.6156522e-02
   3.3786522e-02
   6.1246522e-02
   4.1416522e-02
   6.8876522e-02
   6.1246522e-02
   3.5306522e-02
   1.0092652e-01
   9.4816522e-02
   9.0236522e-02
   7.6506522e-02
   8.8716522e-02
   1.1465652e-01
   1.1770652e-01
   1.1160652e-01
   1.1770652e-01
   1.0397652e-01
   1.1312652e-01
   1.2991652e-01
   1.4364652e-01
   1.5585652e-01
   1.2686652e-01
   1.4211652e-01
   1.1312652e-01
   1.7721652e-01
   1.8026652e-01
   1.5737652e-01
   1.7263652e-01
   1.7874652e-01
   1.7721652e-01
   1.6653652e-01
   1.6042652e-01
   2.0162652e-01
   1.7721652e-01
   2.0010652e-01
   1.9094652e-01
   2.0925652e-01
   2.0468652e-01
   2.2756652e-01
   2.2146652e-01
   2.0925652e-01
   1.9094652e-01
   2.1688652e-01
   2.1688652e-01
   1.8942652e-01
   2.4130652e-01
   2.2451652e-01
   2.2604652e-01
   2.2451652e-01
   2.1993652e-01
   2.1078652e-01
   1.9399652e-01
   2.0162652e-01
   2.2909652e-01
   2.1383652e-01
   1.7263652e-01
   1.5432652e-01
   1.4211652e-01
   1.7416652e-01
   1.4669652e-01
   1.3601652e-01
   1.2838652e-01
   1.0397652e-01
   1.2228652e-01
   1.2228652e-01
   9.4816522e-02
   5.3616522e-02
   5.3616522e-02
   4.9046522e-02
   4.9046522e-02
   2.1576522e-02
  -1.3134783e-03
   2.0046522e-02
   6.3165217e-03
  -1.1993478e-02
  -7.4134783e-03
   2.0046522e-02
  -4.8613478e-02
  -6.3873478e-02
  -1.6573478e-02
  -5.1663478e-02
  -1.3523478e-02
  -2.5723478e-02
  -4.7083478e-02
  -1.5043478e-02
  -3.9463478e-02
  -4.7083478e-02
  -5.0143478e-02
  -3.0303478e-02
  -1.6573478e-02
  -5.1663478e-02
  -6.2343478e-02
  -4.8613478e-02
  -4.8613478e-02
  -3.7933478e-02
  -4.5563478e-02
  -3.1833478e-02
  -3.6403478e-02
  -3.0303478e-02
  -4.4033478e-02
  -5.3193478e-02
  -4.5563478e-02
  -3.6403478e-02
  -3.9463478e-02
  -4.3634783e-03
  -5.4713478e-02
  -2.7253478e-02
  -2.7253478e-02
  -5.6243478e-02
  -3.1833478e-02
  -4.8613478e-02
  -2.7253478e-02
  -2.2673478e-02
  -4.5563478e-02
  -3.6403478e-02
  -1.1993478e-02
  -3.0303478e-02
  -5.0143478e-02
  -3.6403478e-02
  -6.5403478e-02
  -4.8613478e-02
  -4.2513478e-02
  -4.4033478e-02
  -4.7083478e-02
  -2.1143478e-02
  -3.3353478e-02
  -3.4883478e-02
  -2.5723478e-02
  -1.8093478e-02
  -1.6573478e-02
  -3.6403478e-02
  -6.0823478e-02
  -4.2513478e-02
  -4.0983478e-02
  -3.3353478e-02
  -6.5403478e-02
  -3.9463478e-02
  -5.6243478e-02
  -6.8453478e-02
  -2.2673478e-02
  -2.4203478e-02
  -2.1143478e-02
  -3.0303478e-02
  -5.0143478e-02
  -2.7253478e-02
  -3.4883478e-02
  -5.7773478e-02
  -5.1663478e-02
  -3.6403478e-02
  -7.7603478e-02
  -4.4033478e-02
  -6.2343478e-02
  -6.3873478e-02
  -3.1833478e-02
  -4.7083478e-02
  -4.5563478e-02
  -5.6243478e-02
  -6.8453478e-02
  -5.1663478e-02
  -5.7773478e-02
  -5.0143478e-02
  -4.7083478e-02
  -9.1343478e-02
  -7.6083478e-02
  -5.4713478e-02
  -4.7083478e-02
  -6.3873478e-02
  -8.3713478e-02
  -6.0823478e-02
  -5.1663478e-02
  -5.1663478e-02
  -7.3023478e-02
  -6.3873478e-02
  -6.0823478e-02
  -5.1663478e-02
  -6.2343478e-02
  -5.7773478e-02
  -5.9293478e-02
  -6.8453478e-02
  -8.9813478e-02
  -8.5233478e-02
  -7.3023478e-02
  -7.3023478e-02
  -8.3713478e-02
  -8.5233478e-02
  -6.8453478e-02
  -4.2513478e-02
  -6.6923478e-02
  -7.6083478e-02
  -5.7773478e-02
  -5.9293478e-02
  -1.0049348e-01
  -8.0653478e-02
  -5.1663478e-02
  -8.3713478e-02
  -6.5403478e-02
  -7.9133478e-02
  -7.1503478e-02
  -7.9133478e-02
  -6.9973478e-02
  -7.7603478e-02
  -8.0653478e-02
  -8.9813478e-02
  -1.0049348e-01
  -7.6083478e-02
  -6.3873478e-02
  -1.0202348e-01
  -8.3713478e-02
  -9.2863478e-02
  -8.6763478e-02
  -4.5563478e-02
  -8.8283478e-02
  -6.9973478e-02
  -6.2343478e-02
  -6.5403478e-02
  -7.3023478e-02
  -5.9293478e-02
  -7.9133478e-02
  -4.7083478e-02
  -8.8283478e-02
  -8.6763478e-02
  -7.6083478e-02
  -6.0823478e-02
  -9.5913478e-02
  -7.4553478e-02
  -5.4713478e-02
  -1.2033348e-01
  -5.4713478e-02
  -7.4553478e-02
  -8.3713478e-02
  -7.3023478e-02
  -8.3713478e-02
  -9.2863478e-02
  -7.3023478e-02
  -7.3023478e-02
  -8.2183478e-02
  -7.6083478e-02
  -7.6083478e-02
  -7.7603478e-02
  -6.8453478e-02
  -7.4553478e-02
  -1.0659348e-01
  -6.0823478e-02
  -7.4553478e-02
  -7.3023478e-02
  -6.0823478e-02
  -5.3193478e-02
  -6.5403478e-02
  -1.1728348e-01
  -9.2863478e-02
  -7.3023478e-02
  -6.8453478e-02
  -9.2863478e-02
  -4.2513478e-02
  -5.9293478e-02
  -8.0653478e-02
  -7.6083478e-02
  -7.9133478e-02
  -5.6243478e-02
  -6.6923478e-02
  -7.7603478e-02
  -9.1343478e-02
  -1.1728348e-01
  -7.3023478e-02
  -4.0983478e-02
  -5.9293478e-02
  -8.6763478e-02
  -6.2343478e-02
  -5.3193478e-02
  -4.8613478e-02
  -4.4033478e-02
  -7.1503478e-02
  -5.6243478e-02
  -6.3873478e-02
  -6.8453478e-02
  -7.6083478e-02
  -6.8453478e-02
  -6.0823478e-02
  -9.7443478e-02
  -8.5233478e-02
  -6.9973478e-02
  -8.0653478e-02
  -5.6243478e-02
  -5.6243478e-02
  -6.0823478e-02
  -7.9133478e-02
  -5.7773478e-02
  -7.9133478e-02
  -6.8453478e-02
  -6.3873478e-02
  -7.1503478e-02
  -1.1728348e-01
  -9.2863478e-02
  -1.0507348e-01
  -4.2513478e-02
  -6.2343478e-02
  -3.9463478e-02
  -4.4033478e-02
  -2.4203478e-02
  -6.6923478e-02
  -6.6923478e-02
  -5.6243478e-02
  -6.9973478e-02
  -6.8453478e-02
  -7.7603478e-02
  -5.6243478e-02
  -8.6763478e-02
  -8.6763478e-02
  -7.6083478e-02
  -8.0653478e-02
  -8.6763478e-02
  -5.9293478e-02
  -3.4883478e-02
  -4.2513478e-02
  -2.2673478e-02
  -4.4033478e-02
  -4.7083478e-02
  -5.9293478e-02
  -7.4553478e-02
  -3.9463478e-02
  -3.3353478e-02
  -4.5563478e-02
  -3.0303478e-02
  -2.5723478e-02
  -2.1143478e-02
  -5.7773478e-02
  -5.4713478e-02
  -3.6403478e-02
  -4.2513478e-02
  -5.6243478e-02
  -4.2513478e-02
  -5.8934783e-03
  -2.8334783e-03
  -3.4883478e-02
  -3.0303478e-02
   1.5476522e-02
   9.3665217e-03
  -3.1833478e-02
  -1.6573478e-02
   1.2416522e-02
  -1.0463478e-02
  -1.6573478e-02
   4.7965217e-03
   2.1652165e-04
   2.7676522e-02
   9.3665217e-03
   1.6996522e-02
  -1.3523478e-02
  -2.5723478e-02
  -2.4203478e-02
  -3.1833478e-02
  -5.7773478e-02
  -4.8613478e-02
  -8.8283478e-02
  -1.0202348e-01
  -6.3873478e-02
  -6.5403478e-02
  -8.2183478e-02
  -9.1343478e-02
  -8.8283478e-02
  -9.4393478e-02
  -9.8963478e-02
  -5.3193478e-02
  -5.3193478e-02
  -8.9813478e-02
  -9.2863478e-02
  -1.0049348e-01
  -7.3023478e-02
  -8.6763478e-02
  -8.2183478e-02
  -8.3713478e-02
  -1.1880348e-01
  -8.6763478e-02
  -6.0823478e-02
  -7.4553478e-02
  -7.3023478e-02
  -6.6923478e-02
  -8.0653478e-02
  -9.1343478e-02
  -7.9133478e-02
  -9.5913478e-02
  -8.6763478e-02
  -9.1343478e-02
  -1.1117348e-01
  -5.4713478e-02
  -8.0653478e-02
  -7.9133478e-02
  -1.1422348e-01
  -1.0049348e-01
  -1.0659348e-01
  -7.3023478e-02
  -8.0653478e-02
  -8.5233478e-02
  -1.0812348e-01
  -1.0507348e-01
  -1.2796348e-01
  -1.1575348e-01
  -5.1663478e-02
   2.4626522e-02
   9.9396522e-02
   1.6195652e-01
   2.4740652e-01
   3.1149652e-01
   3.8168652e-01
   4.4271652e-01
   4.7323652e-01
   4.4424652e-01
   3.9236652e-01
   3.5879652e-01
   2.6113652e-01
   1.6805652e-01
   9.0236522e-02
  -2.1143478e-02
  -1.9204348e-01
  -3.2785348e-01
  -3.5073348e-01
  -3.1869348e-01
  -2.5766348e-01
  -2.3324348e-01
  -1.8136348e-01
  -1.3864348e-01
  -1.0812348e-01
  -8.9813478e-02
  -8.0653478e-02
  -5.1663478e-02
  -3.6403478e-02
  -5.9293478e-02
  -4.5563478e-02
  -5.4713478e-02
  -7.7603478e-02
  -1.3523478e-02
  -3.1833478e-02
  -3.9463478e-02
  -5.0143478e-02
  -5.4713478e-02
  -1.3523478e-02
  -4.2513478e-02
  -4.5563478e-02
  -3.6403478e-02
  -6.0823478e-02
  -3.9463478e-02
  -5.1663478e-02
  -4.5563478e-02
  -3.9463478e-02
  -4.0983478e-02
  -2.7253478e-02
  -2.1143478e-02
  -4.7083478e-02
  -8.9434783e-03
  -8.9434783e-03
  -3.1833478e-02
  -3.1833478e-02
   7.8465217e-03
  -4.3634783e-03
  -2.1143478e-02
  -1.0463478e-02
   2.1652165e-04
  -2.7253478e-02
  -1.0463478e-02
   9.3665217e-03
  -2.8334783e-03
  -3.9463478e-02
   1.0896522e-02
   3.2665217e-03
  -5.8934783e-03
   3.2256522e-02
   2.6156522e-02
  -1.3523478e-02
   6.3165217e-03
   1.2416522e-02
  -1.0463478e-02
  -4.2513478e-02
   2.9206522e-02
   4.5986522e-02
   2.9206522e-02
   4.2936522e-02
   3.2256522e-02
   9.3665217e-03
   5.6676522e-02
   5.0566522e-02
   4.5986522e-02
  -1.0463478e-02
   1.0896522e-02
   1.0896522e-02
   6.1246522e-02
   4.7516522e-02
   4.7516522e-02
   7.6506522e-02
   6.8876522e-02
   6.2776522e-02
   8.2606522e-02
   7.4986522e-02
   5.9726522e-02
   8.4136522e-02
   9.1766522e-02
   8.7186522e-02
   6.8876522e-02
   8.1086522e-02
   8.7186522e-02
   9.1766522e-02
   9.0236522e-02
   1.0854652e-01
   1.1007652e-01
   9.7866522e-02
   1.1160652e-01
   1.2228652e-01
   1.3601652e-01
   1.1923652e-01
   1.1312652e-01
   1.0854652e-01
   1.4974652e-01
   1.1923652e-01
   1.5432652e-01
   1.3906652e-01
   1.3906652e-01
   1.3601652e-01
   1.7568652e-01
   1.5280652e-01
   1.7874652e-01
   1.9705652e-01
   1.8636652e-01
   1.6805652e-01
   2.0620652e-01
   2.0162652e-01
   2.0468652e-01
   2.2451652e-01
   1.8942652e-01
   2.0620652e-01
   2.2909652e-01
   2.2146652e-01
   2.1688652e-01
   2.2146652e-01
   2.3367652e-01
   1.9857652e-01
   2.2756652e-01
   2.3977652e-01
   2.0010652e-01
   2.1841652e-01
   2.5503652e-01
   2.2451652e-01
   2.4130652e-01
   2.8555652e-01
   2.7639652e-01
   2.5656652e-01
   2.5198652e-01
   2.7334652e-01
   2.7029652e-01
   2.3672652e-01
   2.4282652e-01
   2.4282652e-01
   2.3672652e-01
   2.3062652e-01
   2.3824652e-01
   2.2451652e-01
   2.2909652e-01
   2.4587652e-01
   2.0162652e-01
   1.9857652e-01
   1.9857652e-01
   2.2299652e-01
   1.8942652e-01
   1.6653652e-01
   1.6958652e-01
   1.2075652e-01
   1.3906652e-01
   1.3906652e-01
   1.2075652e-01
   8.8716522e-02
   1.0549652e-01
   1.0092652e-01
   6.7356522e-02
   5.3616522e-02
   7.8036522e-02
   5.9726522e-02
   4.1416522e-02
   3.9886522e-02
   4.7516522e-02
   7.8465217e-03
   3.0736522e-02
   2.3106522e-02
   1.0896522e-02
  -1.0463478e-02
   2.7676522e-02
   1.0896522e-02
   1.6996522e-02
  -7.4134783e-03
   1.2416522e-02
  -4.3634783e-03
  -1.0463478e-02
  -1.3134783e-03
  -3.1833478e-02
  -3.3353478e-02
  -3.4883478e-02
  -1.9623478e-02
  -1.3134783e-03
  -7.4134783e-03
   1.6996522e-02
  -1.0463478e-02
  -2.4203478e-02
  -2.2673478e-02
  -4.3634783e-03
  -1.8093478e-02
   1.3946522e-02
  -1.3134783e-03
  -1.5043478e-02
  -2.8334783e-03
  -7.4134783e-03
  -4.3634783e-03
  -3.1833478e-02
   4.7965217e-03
  -1.6573478e-02
  -4.3634783e-03
   1.2416522e-02
  -1.3134783e-03
   2.1652165e-04
  -5.8934783e-03
  -1.3134783e-03
  -7.4134783e-03
  -4.4033478e-02
  -1.8093478e-02
  -4.3634783e-03
  -1.5043478e-02
  -4.3634783e-03
  -7.4134783e-03
  -2.8334783e-03
  -4.0983478e-02
  -1.1993478e-02
  -1.9623478e-02
  -3.1833478e-02
   3.6836522e-02
  -4.3634783e-03
  -7.4134783e-03
   1.7365217e-03
   7.8465217e-03
  -8.9434783e-03
  -7.4134783e-03
  -2.5723478e-02
  -2.7253478e-02
  -2.1143478e-02
  -2.2673478e-02
  -1.9623478e-02
  -1.9623478e-02
  -1.0463478e-02
  -1.3523478e-02
  -2.4203478e-02
   1.3946522e-02
  -3.3353478e-02
  -1.1993478e-02
   2.1652165e-04
  -3.6403478e-02
  -1.9623478e-02
  -1.6573478e-02
  -2.1143478e-02
  -3.0303478e-02
  -7.4134783e-03
  -1.3523478e-02
  -1.6573478e-02
  -4.4033478e-02
  -3.1833478e-02
  -1.9623478e-02
  -1.1993478e-02
  -1.8093478e-02
  -2.5723478e-02
  -2.5723478e-02
  -2.4203478e-02
  -3.0303478e-02
  -7.4553478e-02
  -2.7253478e-02
  -1.6573478e-02
  -2.5723478e-02
  -8.9434783e-03
   2.1652165e-04
  -8.9434783e-03
  -2.2673478e-02
  -1.9623478e-02
  -2.4203478e-02
  -4.7083478e-02
  -2.4203478e-02
  -5.0143478e-02
  -1.3134783e-03
  -3.6403478e-02
  -5.6243478e-02
  -3.3353478e-02
  -4.5563478e-02
  -3.7933478e-02
  -4.8613478e-02
  -2.2673478e-02
  -7.9133478e-02
  -3.3353478e-02
  -3.7933478e-02
  -3.9463478e-02
  -8.5233478e-02
  -3.3353478e-02
  -3.7933478e-02
  -2.1143478e-02
  -4.2513478e-02
  -4.5563478e-02
  -5.1663478e-02
  -3.4883478e-02
  -5.1663478e-02
  -3.3353478e-02
  -3.9463478e-02
  -3.6403478e-02
  -5.3193478e-02
  -4.2513478e-02
  -5.3193478e-02
  -5.9293478e-02
  -4.8613478e-02
  -4.7083478e-02
  -4.4033478e-02
  -2.2673478e-02
  -8.3713478e-02
  -7.4553478e-02
  -6.9973478e-02
  -5.7773478e-02
  -4.2513478e-02
  -5.9293478e-02
  -3.6403478e-02
  -4.5563478e-02
  -4.0983478e-02
  -5.9293478e-02
  -6.6923478e-02
  -3.3353478e-02
  -5.3193478e-02
  -5.1663478e-02
  -4.0983478e-02
  -8.0653478e-02
  -6.6923478e-02
  -3.3353478e-02
  -2.1143478e-02
  -3.9463478e-02
  -7.3023478e-02
  -4.4033478e-02
  -4.0983478e-02
  -3.6403478e-02
  -4.2513478e-02
  -4.7083478e-02
  -5.4713478e-02
  -5.7773478e-02
  -4.7083478e-02
  -4.8613478e-02
  -4.8613478e-02
  -5.4713478e-02
  -5.0143478e-02
  -4.4033478e-02
  -5.3193478e-02
  -6.5403478e-02
  -7.6083478e-02
  -4.4033478e-02
  -5.1663478e-02
  -7.3023478e-02
  -4.8613478e-02
  -4.7083478e-02
  -5.9293478e-02
  -5.0143478e-02
  -4.5563478e-02
  -4.4033478e-02
  -6.3873478e-02
  -3.9463478e-02
  -8.0653478e-02
  -5.4713478e-02
  -6.5403478e-02
  -7.4553478e-02
  -6.8453478e-02
  -5.0143478e-02
  -2.2673478e-02
  -6.6923478e-02
  -6.9973478e-02
  -3.1833478e-02
  -1.6573478e-02
  -2.2673478e-02
  -4.8613478e-02
  -4.5563478e-02
  -5.4713478e-02
  -5.6243478e-02
  -4.2513478e-02
  -5.6243478e-02
  -5.7773478e-02
  -6.0823478e-02
  -4.2513478e-02
  -3.4883478e-02
  -7.1503478e-02
  -5.6243478e-02
  -4.8613478e-02
  -5.1663478e-02
  -4.7083478e-02
  -4.5563478e-02
  -7.9133478e-02
  -3.1833478e-02
  -3.0303478e-02
  -4.8613478e-02
  -5.6243478e-02
  -5.1663478e-02
  -5.0143478e-02
  -4.7083478e-02
  -3.7933478e-02
  -4.8613478e-02
  -7.3023478e-02
  -8.2183478e-02
  -5.3193478e-02
  -6.2343478e-02
  -1.0049348e-01
  -5.9293478e-02
  -6.3873478e-02
  -1.8093478e-02
  -4.8613478e-02
  -5.9293478e-02
  -4.2513478e-02
  -2.7253478e-02
  -3.7933478e-02
  -3.6403478e-02
  -6.2343478e-02
  -4.7083478e-02
  -5.6243478e-02
  -5.0143478e-02
  -5.1663478e-02
  -4.8613478e-02
  -6.2343478e-02
  -7.1503478e-02
  -4.5563478e-02
  -4.5563478e-02
  -8.6763478e-02
  -5.3193478e-02
  -4.4033478e-02
  -6.0823478e-02
  -2.4203478e-02
  -3.4883478e-02
  -6.5403478e-02
  -7.1503478e-02
  -3.0303478e-02
  -4.2513478e-02
  -4.5563478e-02
  -3.3353478e-02
  -4.5563478e-02
  -3.4883478e-02
  -5.9293478e-02
  -6.5403478e-02
  -2.2673478e-02
  -2.5723478e-02
  -3.1833478e-02
  -3.9463478e-02
  -3.9463478e-02
  -5.1663478e-02
  -2.4203478e-02
  -1.8093478e-02
  -1.5043478e-02
  -3.1833478e-02
  -2.4203478e-02
  -1.3134783e-03
   4.7965217e-03
  -2.2673478e-02
  -2.5723478e-02
  -2.5723478e-02
  -3.7933478e-02
  -3.9463478e-02
  -1.8093478e-02
  -1.8093478e-02
  -3.0303478e-02
   1.6996522e-02
   6.3165217e-03
   1.2416522e-02
  -2.1143478e-02
   3.5306522e-02
   3.3786522e-02
   4.5986522e-02
   3.6836522e-02
   1.5476522e-02
   2.0046522e-02
   7.8465217e-03
   1.2416522e-02
   1.2416522e-02
   1.8526522e-02
   9.3665217e-03
  -5.8934783e-03
   7.8465217e-03
  -1.0463478e-02
  -4.0983478e-02
  -6.9973478e-02
  -6.3873478e-02
  -6.9973478e-02
  -6.5403478e-02
  -7.3023478e-02
  -4.4033478e-02
  -7.1503478e-02
  -1.0812348e-01
  -7.6083478e-02
  -8.2183478e-02
  -6.9973478e-02
  -6.0823478e-02
  -4.2513478e-02
  -5.1663478e-02
  -7.3023478e-02
  -6.0823478e-02
  -7.4553478e-02
  -8.2183478e-02
  -6.0823478e-02
  -7.3023478e-02
  -7.6083478e-02
  -8.3713478e-02
  -7.6083478e-02
  -9.1343478e-02
  -6.2343478e-02
  -4.5563478e-02
  -8.5233478e-02
  -1.1880348e-01
  -8.8283478e-02
  -4.5563478e-02
  -7.3023478e-02
  -6.6923478e-02
  -5.4713478e-02
  -6.5403478e-02
  -8.5233478e-02
  -6.3873478e-02
  -6.0823478e-02
  -7.7603478e-02
  -6.8453478e-02
  -7.9133478e-02
  -7.6083478e-02
  -8.6763478e-02
  -7.6083478e-02
  -9.5913478e-02
  -1.0049348e-01
  -1.0202348e-01
  -7.3023478e-02
   6.3165217e-03
   9.1766522e-02
   1.6348652e-01
   2.5198652e-01
   3.2217652e-01
   3.8625652e-01
   4.9154652e-01
   5.1290652e-01
   4.8391652e-01
   4.4729652e-01
   4.0304652e-01
   3.1912652e-01
   2.4130652e-01
   1.1007652e-01
  -1.9623478e-02
  -1.9662348e-01
  -3.3090348e-01
  -3.6447348e-01
  -3.4005348e-01
  -2.6834348e-01
  -2.2714348e-01
  -2.0120348e-01
  -1.6916348e-01
  -9.2863478e-02
  -4.2513478e-02
  -8.9434783e-03
  -3.4883478e-02
  -4.0983478e-02
  -3.4883478e-02
  -4.3634783e-03
   3.0736522e-02
   3.2665217e-03
  -2.4203478e-02
  -1.5043478e-02
  -3.9463478e-02
  -5.8934783e-03
  -1.8093478e-02
  -2.5723478e-02
  -1.8093478e-02
  -3.9463478e-02
  -5.0143478e-02
  -1.6573478e-02
  -1.1993478e-02
  -2.2673478e-02
  -1.3134783e-03
   9.3665217e-03
  -1.6573478e-02
  -3.9463478e-02
   9.3665217e-03
   3.2665217e-03
  -8.9434783e-03
   2.4626522e-02
   2.6156522e-02
  -7.4134783e-03
  -7.4134783e-03
   3.2256522e-02
   1.0896522e-02
  -1.8093478e-02
   2.0046522e-02
   6.2776522e-02
  -1.8093478e-02
   2.1652165e-04
   9.3665217e-03
   1.5476522e-02
   1.5476522e-02
   4.2936522e-02
  -1.6573478e-02
   1.3946522e-02
   1.8526522e-02
   1.3946522e-02
   6.2776522e-02
   5.5146522e-02
   5.9726522e-02
   5.3616522e-02
   3.3786522e-02
   1.0244652e-01
   5.8196522e-02
   2.9206522e-02
   4.2936522e-02
   3.5306522e-02
   1.5476522e-02
   1.2416522e-02
   9.7866522e-02
   5.8196522e-02
   6.5826522e-02
   7.9556522e-02
   7.6506522e-02
   8.4136522e-02
   7.9556522e-02
   6.5826522e-02
   6.7356522e-02
   8.7186522e-02
   7.8036522e-02
   7.9556522e-02
   9.0236522e-02
   1.0092652e-01
   1.1007652e-01
   9.0236522e-02
   9.7866522e-02
   1.1160652e-01
   9.9396522e-02
   1.2228652e-01
   1.1923652e-01
   1.3296652e-01
   1.0702652e-01
   1.5890652e-01
   1.3601652e-01
   1.2686652e-01
   1.2686652e-01
   1.3754652e-01
   1.2380652e-01
   1.4974652e-01
   1.5890652e-01
   1.4669652e-01
   1.5737652e-01
   1.7568652e-01
   1.1770652e-01
   1.6348652e-01
   2.1993652e-01
   1.8789652e-01
   1.6805652e-01
   2.0773652e-01
   2.3214652e-01
   1.9857652e-01
   1.7721652e-01
   2.4893652e-01
   2.1078652e-01
   1.9857652e-01
   2.3519652e-01
   2.3672652e-01
   2.2604652e-01
   2.5350652e-01
   2.5350652e-01
   2.0773652e-01
   2.5350652e-01
   2.6266652e-01
   2.7944652e-01
   2.7029652e-01
   2.6876652e-01
   2.6724652e-01
   2.5656652e-01
   2.6724652e-01
   2.8402652e-01
   2.5808652e-01
   2.6571652e-01
   2.9775652e-01
   2.7029652e-01
   2.9012652e-01
   2.8707652e-01
   2.8097652e-01
   2.7029652e-01
   2.8250652e-01
   2.6418652e-01
   2.4435652e-01
   2.7181652e-01
   2.6266652e-01
   2.6418652e-01
   2.4435652e-01
   2.6113652e-01
   2.5198652e-01
   2.2604652e-01
   2.3519652e-01
   2.0468652e-01
   1.6805652e-01
   1.8331652e-01
   2.0162652e-01
   1.7568652e-01
   1.3296652e-01
   1.3296652e-01
   1.2838652e-01
   1.0854652e-01
   1.3906652e-01
   1.0854652e-01
   8.7186522e-02
   7.9556522e-02
   8.5666522e-02
   9.6346522e-02
   6.5826522e-02
   6.1246522e-02
   5.8196522e-02
   2.4626522e-02
   3.0736522e-02
   3.5306522e-02
   3.6836522e-02
   2.3106522e-02
   3.5306522e-02
   2.3106522e-02
  -1.3134783e-03
  -2.8334783e-03
  -2.8334783e-03
  -3.4883478e-02
   4.9046522e-02
   2.3106522e-02
  -1.3134783e-03
  -2.8334783e-03
   3.9886522e-02
   1.3946522e-02
  -7.4134783e-03
  -1.5043478e-02
  -2.2673478e-02
  -8.9434783e-03
  -1.3134783e-03
   4.7965217e-03
   2.1576522e-02
   2.0046522e-02
   4.5986522e-02
   1.6996522e-02
  -1.3134783e-03
  -1.3134783e-03
  -7.4134783e-03
   2.1576522e-02
   7.8465217e-03
   1.3946522e-02
   1.7365217e-03
   1.2416522e-02
   3.6836522e-02
  -2.1143478e-02
  -7.4134783e-03
   2.7676522e-02
   2.7676522e-02
  -1.8093478e-02
   4.7965217e-03
   3.6836522e-02
   1.2416522e-02
   1.6996522e-02
   3.2256522e-02
   2.0046522e-02
  -5.8934783e-03
   1.3946522e-02
  -7.4134783e-03
  -2.8334783e-03
   2.1652165e-04
   1.5476522e-02
  -1.0463478e-02
  -1.8093478e-02
   1.2416522e-02
   3.2665217e-03
   4.7965217e-03
   1.5476522e-02
   2.1652165e-04
  -2.7253478e-02
   7.8465217e-03
  -1.3134783e-03
  -4.3634783e-03
  -1.5043478e-02
  -3.1833478e-02
   1.7365217e-03
  -1.9623478e-02
  -4.0983478e-02
  -1.6573478e-02
   1.2416522e-02
   4.7965217e-03
  -1.1993478e-02
  -2.2673478e-02
  -4.2513478e-02
   2.1652165e-04
   2.0046522e-02
  -2.1143478e-02
  -1.9623478e-02
  -1.8093478e-02
  -2.2673478e-02
  -3.9463478e-02
  -5.1663478e-02
  -2.4203478e-02
  -3.3353478e-02
  -1.8093478e-02
  -1.1993478e-02
   1.7365217e-03
  -1.6573478e-02
  -2.1143478e-02
  -5.6243478e-02
  -7.4134783e-03
  -2.7253478e-02
  -3.9463478e-02
  -1.5043478e-02
  -7.4134783e-03
  -1.3523478e-02
  -3.0303478e-02
  -3.4883478e-02
  -3.0303478e-02
  -4.8613478e-02
  -3.6403478e-02
  -6.9973478e-02
  -3.4883478e-02
  -3.4883478e-02
  -1.0463478e-02
  -3.0303478e-02
  -4.4033478e-02
  -2.7253478e-02
  -4.7083478e-02
  -4.5563478e-02
  -2.2673478e-02
  -6.6923478e-02
  -4.8613478e-02
  -4.5563478e-02
  -3.1833478e-02
  -7.7603478e-02
  -4.2513478e-02
  -7.1503478e-02
  -6.0823478e-02
  -6.9973478e-02
  -4.0983478e-02
  -2.2673478e-02
  -4.4033478e-02
  -6.5403478e-02
  -3.7933478e-02
  -5.0143478e-02
  -4.2513478e-02
  -5.9293478e-02
  -5.6243478e-02
  -6.3873478e-02
  -4.2513478e-02
  -6.2343478e-02
  -3.4883478e-02
  -4.4033478e-02
  -1.3523478e-02
  -1.8093478e-02
  -4.5563478e-02
  -3.3353478e-02
  -4.4033478e-02
  -6.5403478e-02
  -4.7083478e-02
  -3.9463478e-02
  -5.3193478e-02
  -6.9973478e-02
  -2.1143478e-02
  -1.8093478e-02
  -4.8613478e-02
  -3.9463478e-02
  -3.1833478e-02
  -2.5723478e-02
  -2.7253478e-02
  -6.0823478e-02
  -5.4713478e-02
  -6.0823478e-02
  -5.9293478e-02
  -5.4713478e-02
  -6.6923478e-02
  -5.6243478e-02
  -5.9293478e-02
  -3.4883478e-02
  -4.2513478e-02
  -5.6243478e-02
  -7.7603478e-02
  -5.9293478e-02
  -4.0983478e-02
  -2.2673478e-02
  -7.9133478e-02
  -3.4883478e-02
  -4.4033478e-02
  -4.5563478e-02
  -4.0983478e-02
  -3.7933478e-02
  -6.2343478e-02
  -5.4713478e-02
  -5.1663478e-02
  -3.3353478e-02
  -6.3873478e-02
  -9.1343478e-02
  -5.6243478e-02
  -6.3873478e-02
  -4.5563478e-02
  -5.9293478e-02
  -7.4553478e-02
  -6.8453478e-02
  -1.6573478e-02
  -5.6243478e-02
  -7.3023478e-02
  -3.9463478e-02
  -7.3023478e-02
  -8.8283478e-02
  -3.6403478e-02
  -5.9293478e-02
  -5.4713478e-02
  -5.1663478e-02
  -4.5563478e-02
  -3.3353478e-02
  -9.7443478e-02
  -5.9293478e-02
  -5.6243478e-02
  -8.5233478e-02
  -3.4883478e-02
  -4.0983478e-02
  -8.2183478e-02
  -4.5563478e-02
  -6.8453478e-02
  -1.1993478e-02
  -5.9293478e-02
  -7.3023478e-02
  -5.4713478e-02
  -6.8453478e-02
  -5.7773478e-02
  -5.7773478e-02
  -6.0823478e-02
  -5.9293478e-02
  -4.7083478e-02
  -6.3873478e-02
  -5.9293478e-02
  -6.6923478e-02
  -7.1503478e-02
  -5.7773478e-02
  -5.7773478e-02
  -6.5403478e-02
  -6.2343478e-02
  -8.0653478e-02
  -5.1663478e-02
  -6.6923478e-02
  -4.4033478e-02
  -6.0823478e-02
  -3.9463478e-02
  -5.0143478e-02
  -6.0823478e-02
  -9.2863478e-02
  -3.7933478e-02
  -5.4713478e-02
  -5.9293478e-02
  -3.3353478e-02
  -5.1663478e-02
  -5.7773478e-02
  -7.4553478e-02
  -7.3023478e-02
  -3.1833478e-02
  -5.9293478e-02
  -7.3023478e-02
  -5.1663478e-02
  -3.7933478e-02
  -9.5913478e-02
  -7.1503478e-02
  -2.5723478e-02
  -1.6573478e-02
  -5.6243478e-02
  -6.3873478e-02
  -4.5563478e-02
  -3.9463478e-02
  -5.1663478e-02
  -5.1663478e-02
  -4.4033478e-02
  -5.7773478e-02
  -4.5563478e-02
  -3.6403478e-02
  -4.0983478e-02
  -5.3193478e-02
  -4.0983478e-02
  -6.5403478e-02
  -1.1993478e-02
  -3.0303478e-02
  -2.5723478e-02
  -5.6243478e-02
  -4.2513478e-02
  -1.8093478e-02
  -1.3523478e-02
  -2.8334783e-03
  -4.3634783e-03
  -7.1503478e-02
  -4.5563478e-02
  -1.6573478e-02
  -2.8334783e-03
   2.1652165e-04
  -1.3134783e-03
   9.3665217e-03
   6.3165217e-03
  -8.9434783e-03
  -4.3634783e-03
   3.0736522e-02
   6.3165217e-03
   2.1576522e-02
  -4.3634783e-03
  -3.4883478e-02
   1.5476522e-02
  -1.3134783e-03
   2.4626522e-02
   3.0736522e-02
  -2.8334783e-03
  -1.0463478e-02
   1.7365217e-03
  -2.8334783e-03
  -1.1993478e-02
  -2.4203478e-02
  -2.5723478e-02
