  -8.6227625e-02
  -1.2393870e-01
  -1.2400983e-01
  -1.1494142e-01
  -5.5489058e-02
   9.3182753e-03
   2.0830094e-02
  -5.6642575e-03
  -5.1931978e-02
  -8.6523099e-02
  -1.5344581e-01
  -1.8579607e-01
  -1.9271131e-01
  -1.6751793e-01
  -1.1090649e-01
  -6.0712638e-02
  -4.9965762e-02
  -6.6817247e-02
  -1.1108076e-01
  -1.4151965e-01
  -1.8997761e-01
  -2.0718369e-01
  -1.7988064e-01
  -1.5740127e-01
  -9.9547123e-02
  -4.4306448e-02
  -3.8120663e-02
  -3.6034670e-02
  -7.3467749e-02
  -1.2641962e-01
  -1.7875501e-01
  -1.8160161e-01
  -1.6363951e-01
  -1.3933356e-01
  -8.9978072e-02
  -3.5367996e-02
  -1.4953490e-02
  -3.0880796e-02
  -5.9956187e-02
  -1.2903406e-01
  -1.9029150e-01
  -2.0695272e-01
  -1.9766760e-01
  -1.5067097e-01
  -8.9351791e-02
  -1.1797494e-02
  -6.2482712e-03
  -4.1521981e-02
  -5.2161373e-02
  -8.8852756e-02
  -1.5382810e-01
  -1.4859645e-01
  -1.3712326e-01
  -1.0684987e-01
  -6.4527974e-02
  -2.9903469e-02
  -4.1180331e-02
  -7.1371952e-02
  -8.3640400e-02
  -1.4083012e-01
  -1.9802381e-01
  -1.8638671e-01
  -1.6899054e-01
  -1.3961549e-01
  -8.6423202e-02
  -2.7981406e-02
  -3.9393307e-02
  -7.9673430e-02
  -7.8930383e-02
  -1.0775621e-01
  -1.5192521e-01
  -1.3991273e-01
  -1.2523103e-01
  -1.0011562e-01
  -5.2971309e-02
   1.1152646e-02
   2.9138143e-02
   3.4937156e-03
  -3.0009346e-02
  -8.4084035e-02
  -1.4445134e-01
  -1.3295109e-01
  -1.0497737e-01
  -8.8125886e-02
  -3.2734644e-02
   3.3264069e-02
   4.8924703e-02
   1.5355290e-02
  -1.4464648e-02
  -7.3751608e-02
  -1.1547546e-01
  -1.2533911e-01
  -1.1861275e-01
  -9.3670264e-02
  -3.2015285e-02
   2.5790926e-02
   3.8560163e-02
   4.5507317e-02
   3.7378284e-03
  -4.8973275e-02
  -1.1014103e-01
  -1.1989123e-01
  -1.2387980e-01
  -9.7498761e-02
  -4.0654751e-02
  -1.0710887e-03
   1.7199968e-03
  -2.5759015e-03
  -5.2180259e-02
  -1.3178975e-01
  -1.7087342e-01
  -1.7526599e-01
  -1.7608177e-01
  -1.3785236e-01
  -7.7412857e-02
  -2.7068891e-02
  -4.0499636e-03
  -1.0550405e-02
  -4.2399468e-02
  -9.2816566e-02
  -1.4170019e-01
  -1.2926638e-01
  -1.0916921e-01
  -8.7044030e-02
  -3.2930260e-02
   1.3254938e-02
  -7.7438004e-03
  -1.3822694e-02
  -3.5644114e-02
  -6.6058780e-02
  -1.1639991e-01
  -1.2119476e-01
  -9.5289655e-02
  -9.5869862e-02
  -2.6709103e-02
   1.7422721e-02
   2.8149573e-02
   1.6245007e-02
  -3.3154002e-02
  -6.7782722e-02
  -1.2795632e-01
  -1.4323326e-01
  -1.2749406e-01
  -9.2839860e-02
  -1.5340885e-02
   4.9194462e-02
   5.3266357e-02
   6.3664352e-02
   2.4375497e-02
  -2.1899148e-02
  -6.9609920e-02
  -9.7052483e-02
  -7.3790163e-02
  -5.5375348e-02
  -7.1933941e-03
   4.2677245e-02
   5.5936765e-02
   2.9517932e-02
   7.8776761e-03
  -4.1797982e-02
  -1.0781536e-01
  -1.3089322e-01
  -1.2360787e-01
  -8.3818868e-02
  -2.3684711e-02
   3.3338929e-02
   2.4150278e-02
   1.3247039e-02
  -5.9023157e-03
  -6.9248784e-02
  -1.2040338e-01
  -1.2023252e-01
  -1.1144474e-01
  -8.3737831e-02
  -3.4219545e-02
   2.3278259e-02
   2.6854860e-02
   3.2806423e-02
  -7.3725762e-03
  -5.2272442e-02
  -1.0184980e-01
  -1.1916153e-01
  -1.0662270e-01
  -9.8355870e-02
  -4.5757406e-02
  -1.6826633e-02
  -1.2354989e-02
  -8.7830141e-03
  -1.1654135e-02
  -1.3250994e-02
  -1.9776199e-02
   2.4498525e-02
   6.6219337e-02
   1.5062444e-01
   2.9688586e-01
   4.6704081e-01
   5.6649113e-01
   6.5903617e-01
   6.9711016e-01
   6.3617175e-01
   5.3899632e-01
   5.0895475e-01
   4.2638574e-01
   3.4796499e-01
   2.8105422e-01
   1.9579561e-01
   1.2620420e-01
   6.4913644e-02
  -2.7696201e-03
  -9.0118546e-02
  -1.8549156e-01
  -2.1936764e-01
  -2.3911181e-01
  -2.3113621e-01
  -1.9775962e-01
  -1.1828072e-01
  -9.5443137e-02
  -8.7821327e-02
  -1.2302243e-01
  -1.8120115e-01
  -2.2665067e-01
  -2.4623982e-01
  -2.1846230e-01
  -1.5197563e-01
  -7.2652008e-02
   6.8194914e-04
   1.1506608e-02
  -4.0127821e-03
  -3.0942227e-02
  -7.9165357e-02
  -1.2476477e-01
  -1.2548172e-01
  -1.1258943e-01
  -7.5105641e-02
  -3.0726240e-02
   8.6830255e-03
   2.6595300e-02
   5.3032451e-03
  -1.6351836e-02
  -6.7982937e-02
  -1.2274817e-01
  -1.3358789e-01
  -8.9991153e-02
  -9.1366192e-02
  -4.7624588e-02
   1.4717544e-02
   3.7845833e-02
   1.1111382e-02
  -1.2830246e-03
  -5.8498431e-02
  -9.7989338e-02
  -8.0194702e-02
  -7.8499990e-02
  -5.4119375e-02
   5.7945980e-03
   6.1771411e-02
   7.6329389e-02
   5.7018011e-02
   3.0261775e-02
  -2.4094336e-02
  -7.0781055e-02
  -7.7096288e-02
  -5.2193489e-02
  -2.1184613e-02
   1.5182772e-02
   6.1241963e-02
   7.5895465e-02
   5.9981684e-02
   1.0325003e-02
  -2.5861284e-02
  -7.1569665e-02
  -9.3583830e-02
  -9.0814908e-02
  -5.7339756e-02
   5.2815070e-04
   5.1025972e-02
   8.1395823e-02
   5.3577258e-02
   2.2810033e-02
  -3.3962036e-02
  -8.4661012e-02
  -9.5973181e-02
  -7.7385948e-02
  -6.0190481e-02
  -1.2718914e-02
   4.3092737e-02
   5.8319822e-02
   3.8789667e-02
  -1.4050741e-02
  -4.6892227e-02
  -1.0214774e-01
  -1.0676382e-01
  -7.0539605e-02
  -6.1284268e-02
   1.3357356e-02
   6.5193618e-02
   6.8713022e-02
   4.9189034e-02
   3.9526996e-03
  -2.8425085e-02
  -9.8979635e-02
  -8.2661901e-02
  -8.2611393e-02
  -5.0120528e-02
   4.9406023e-03
   5.4253035e-02
   7.6000267e-02
   6.4097414e-02
   4.5677749e-02
  -1.0319374e-03
  -5.3935869e-02
  -5.7742547e-02
  -3.8347681e-02
  -3.7096638e-02
   3.6565983e-02
   8.6933830e-02
   9.1652905e-02
   7.0364045e-02
   4.6224551e-02
   6.7150095e-04
  -4.9350587e-02
  -4.7355904e-02
  -2.4962463e-02
  -2.2091221e-02
   2.8915698e-02
   6.7370625e-02
   8.2415198e-02
   7.6268430e-02
   5.1727421e-02
   2.9342428e-02
  -3.2947717e-02
  -5.0143204e-02
  -2.6231663e-02
   4.0627506e-03
   3.9046974e-02
   9.2377493e-02
   1.1866374e-01
   1.0545849e-01
   7.9113033e-02
   2.7412718e-02
  -2.9682198e-02
  -5.9525074e-02
  -3.4549281e-02
  -2.4634896e-03
   6.9014275e-02
   8.8726920e-02
   1.0504102e-01
   6.0506756e-02
   2.6772001e-02
  -3.3168154e-02
  -9.4386521e-02
  -1.0172268e-01
  -9.7511984e-02
  -5.9453727e-02
  -2.0123235e-02
   2.7667816e-02
   3.5037259e-02
   6.0184425e-03
  -5.3830478e-03
  -7.5193930e-02
  -1.0551189e-01
  -1.3127723e-01
  -1.1550780e-01
  -7.5383025e-02
  -1.6548510e-02
   2.9936514e-02
   5.3405219e-02
   3.4730516e-02
   2.0094724e-02
  -5.0257675e-02
  -1.0999027e-01
  -7.4863852e-02
  -7.1733141e-02
  -5.0676826e-02
  -9.6922487e-03
   4.1252435e-02
   2.4004871e-02
  -1.2704777e-02
  -3.6956446e-02
  -7.3730074e-02
  -1.4648176e-01
  -1.4355677e-01
  -1.4416668e-01
  -1.0822178e-01
  -4.4492751e-02
  -9.3723602e-03
   3.1939851e-02
   1.1668485e-02
  -1.4714706e-02
  -5.2730584e-02
  -8.4802617e-02
  -8.8688329e-02
  -8.9616394e-02
  -6.1422647e-02
  -5.6476999e-04
   7.2783431e-02
   6.4439546e-02
   5.4737024e-02
   2.4261539e-02
  -1.0417365e-02
  -6.9392543e-02
  -8.0341909e-02
  -4.5110922e-02
  -3.5197377e-02
   8.5138662e-03
   5.2137563e-02
   7.4094077e-02
   4.8635915e-02
   1.0907082e-02
  -4.6909776e-02
  -1.0444831e-01
  -1.0788357e-01
  -1.1696106e-01
  -8.1974193e-02
  -5.4201677e-03
   5.0120458e-02
   5.4152582e-02
   3.7669882e-02
  -1.9171876e-02
  -5.5194352e-02
  -1.0244611e-01
  -1.1572612e-01
  -1.0758409e-01
  -9.1821994e-02
  -7.3846707e-02
   1.6559206e-02
   1.3913165e-02
  -4.3079814e-02
  -3.8384350e-02
  -8.5215242e-02
  -1.2092559e-01
  -1.3055939e-01
  -1.2274421e-01
  -1.0768591e-01
  -5.8388389e-02
  -1.6731958e-02
  -1.0482875e-02
  -2.7127885e-02
  -4.9987254e-02
  -9.5933951e-02
  -1.3464040e-01
  -1.2970231e-01
  -9.9181529e-02
  -6.4141790e-02
  -1.0009361e-02
   6.6762413e-02
   5.8187428e-02
   3.1508031e-02
   1.6897176e-02
  -3.3596936e-02
  -1.1442419e-01
  -1.2106584e-01
  -1.1205207e-01
  -7.4118779e-02
  -2.1748568e-02
  -1.5474121e-03
  -3.4214083e-03
  -1.9762515e-02
  -5.5277528e-02
  -8.3133405e-02
  -1.1920138e-01
  -1.3333071e-01
  -1.0777426e-01
  -9.0206942e-02
  -4.4381532e-02
   1.0010861e-02
   9.8641179e-03
  -8.9327641e-03
  -4.0431798e-02
  -9.7112479e-02
  -1.5139152e-01
  -1.7121831e-01
  -1.5169238e-01
  -1.1662462e-01
  -5.4378235e-02
   3.4526363e-03
   2.6760877e-02
   1.6805009e-02
   2.1582584e-03
  -8.2714385e-02
  -1.1232939e-01
  -9.2778643e-02
  -7.1683120e-02
  -4.3134454e-02
   7.1927603e-04
   6.7347857e-02
   6.3453883e-02
   5.1834840e-02
   4.8240930e-02
  -6.1064540e-03
  -6.2118734e-02
  -5.7468499e-02
  -2.5794119e-02
  -1.5667655e-02
   4.1188035e-02
   1.0281372e-01
   1.3902419e-01
   1.0540982e-01
   9.0152937e-02
   1.3645685e-02
  -2.0255082e-02
  -2.3086219e-02
  -2.9757894e-02
  -1.2309849e-02
   3.9792434e-02
   8.5534995e-02
   1.1279610e-01
   8.7995426e-02
   4.3111285e-02
  -6.0138643e-03
  -9.5762994e-02
  -8.4590210e-02
  -6.5284543e-02
  -5.5684343e-02
   1.9309261e-03
   4.0109540e-02
   4.5178390e-02
   2.2883389e-02
  -9.7220518e-03
  -5.3553100e-02
  -1.0928726e-01
  -1.0487594e-01
  -1.1136991e-01
  -5.7591606e-02
  -1.4278336e-02
   1.4559651e-02
   3.3629874e-02
   3.7671783e-02
  -4.0212701e-03
  -5.4426265e-02
  -1.3484941e-01
  -1.5046800e-01
  -1.0186992e-01
  -6.6069111e-02
  -2.0425971e-02
   1.0567851e-02
   4.2251685e-02
  -6.6318212e-03
  -1.8429834e-02
  -8.6328143e-02
  -1.4236322e-01
  -1.3625176e-01
  -1.2431576e-01
  -7.6546251e-02
  -1.7649879e-02
   9.8860123e-03
  -1.4178750e-02
  -2.3858806e-02
  -4.6580297e-02
  -1.1050676e-01
  -1.6090459e-01
  -1.4495312e-01
  -9.9856734e-02
  -5.4428428e-02
   8.4363491e-02
   1.7193780e-01
   2.5998001e-01
   3.4447198e-01
   4.0502042e-01
   4.2614863e-01
   4.3171816e-01
   4.9568210e-01
   5.4202577e-01
   5.5189180e-01
   5.5245439e-01
   6.0983178e-01
   5.4214915e-01
   4.4809774e-01
   2.6895429e-01
   1.0352382e-01
  -1.4060225e-02
  -5.5863215e-02
  -8.2895960e-02
  -1.5201184e-01
  -1.5018181e-01
  -9.9197234e-02
  -9.4110285e-02
  -1.5506429e-01
  -1.5983392e-01
  -2.2591796e-01
  -1.8157565e-01
  -2.1334353e-01
  -2.1534277e-01
  -1.6795564e-01
  -1.2037198e-01
  -2.6468468e-02
   2.4798259e-02
  -1.6223131e-02
  -2.1287723e-02
  -6.9923755e-02
  -9.4276519e-02
  -9.8948023e-02
  -6.1083765e-02
  -2.7512794e-02
  -2.3949039e-02
   1.2524608e-02
   7.6699143e-03
  -1.0926274e-02
  -4.0905472e-02
  -8.4623319e-02
  -1.2069798e-01
  -1.2525656e-01
  -7.3361507e-02
  -6.4830075e-02
  -3.6746129e-02
   3.6156896e-02
   2.3549408e-02
   4.6313555e-02
   6.0397986e-04
  -5.4347763e-02
  -6.8119270e-02
  -8.5654832e-02
  -4.5020703e-02
  -2.0425999e-02
   4.5026979e-02
   1.1397264e-01
   1.1825908e-01
   1.1609969e-01
   6.9451140e-02
  -5.0417670e-04
  -6.7298091e-02
  -3.5006280e-02
  -1.5404404e-03
   2.9607908e-02
   6.5798304e-02
   1.1865193e-01
   1.3263693e-01
   1.3321371e-01
   1.2417233e-01
   4.0129074e-02
  -2.9439968e-02
  -7.5831244e-02
  -5.8785229e-02
  -8.0586518e-02
  -1.4443230e-02
   9.3177611e-02
   7.4568767e-02
   8.5229297e-02
   3.3490398e-02
  -3.0506063e-02
  -7.4472143e-02
  -9.1059461e-02
  -4.5542379e-02
   1.6613609e-02
   8.2702791e-02
   1.1072641e-01
   1.3189628e-01
   8.9041080e-02
   7.4470586e-02
   4.0919996e-03
  -3.4242815e-02
  -4.1481917e-02
  -2.8381410e-02
  -2.3339961e-02
   5.2531656e-02
   9.0637241e-02
   1.0032726e-01
   5.8998433e-02
   2.3990610e-02
  -3.1610432e-02
  -8.2437223e-02
  -5.5518579e-02
  -2.5569547e-02
   1.6779010e-03
   8.7982303e-02
   1.3808175e-01
   1.7386916e-01
   1.6138472e-01
   1.4251786e-01
   1.0664045e-01
   3.0823615e-02
   5.4938306e-02
   3.6564249e-02
   5.4713916e-02
   1.1982509e-01
   2.0189645e-01
   2.0596274e-01
   1.6452040e-01
   1.2717294e-01
   7.3607361e-02
   2.2264889e-02
   3.2790438e-03
   3.9208426e-02
   4.7649096e-02
   1.0870404e-01
   1.5092190e-01
   1.8761900e-01
   1.9160782e-01
   1.4464190e-01
   1.2707733e-02
  -3.6344377e-02
   3.3167454e-03
   1.4057616e-02
   6.6954868e-02
   1.3186831e-01
   2.0361565e-01
   1.8373116e-01
   1.3912823e-01
   1.3185682e-01
   9.1657098e-02
   2.6046326e-02
   3.1170464e-02
   2.0674395e-02
   1.6627261e-02
   9.0344492e-02
   1.0303995e-01
   1.3215919e-01
   1.1854451e-01
   7.4848409e-02
   1.5851939e-02
  -3.9502596e-02
  -4.2227628e-02
  -3.9435627e-02
  -2.5466418e-02
   3.1817798e-02
   7.2058374e-02
   9.1605481e-02
   7.0299093e-02
   4.6501592e-02
  -5.2049702e-03
  -8.8310248e-02
  -9.4926008e-02
  -1.1313332e-01
  -6.8938342e-02
   2.0733178e-03
   2.8882280e-02
   1.7657123e-02
   9.8605350e-03
   3.0375166e-02
  -3.5452029e-02
  -8.4222191e-02
  -7.8214334e-02
  -3.9441859e-02
  -2.2398377e-02
   1.9988130e-02
   6.3553274e-02
   8.6739227e-02
   7.4231855e-02
   3.4874597e-02
  -1.3784022e-02
  -4.8157076e-02
  -4.7529289e-02
  -2.5239313e-02
   8.5798746e-04
   4.5728939e-02
   9.4094756e-02
   1.0356601e-01
   9.8457269e-02
   5.9976953e-02
   1.6998905e-02
  -4.7707445e-02
  -4.2715946e-02
  -3.1451841e-02
  -2.7943213e-03
   3.1141687e-02
   9.7037776e-02
   1.5094138e-01
   8.3481651e-02
   9.1434004e-02
   3.8653642e-02
  -2.2743457e-02
  -1.8880338e-02
   1.4289109e-03
   1.5212404e-02
   7.5089353e-02
   1.5998999e-01
   1.2074138e-01
   9.5271111e-02
   9.8805603e-02
   8.4777964e-02
  -7.2947948e-03
  -2.8867917e-02
  -3.5902791e-02
  -6.5973777e-03
   8.8297622e-02
   1.2715788e-01
   1.1523561e-01
   1.0825603e-01
   5.9072121e-02
  -1.7949320e-02
  -4.4735210e-02
  -3.4313433e-02
  -3.1104888e-02
  -5.7266947e-03
   5.6568541e-02
   1.3203041e-01
   1.1003655e-01
   8.6824269e-02
   7.8289474e-02
   2.6898649e-02
  -3.4668032e-02
  -6.0454040e-02
  -7.5747296e-02
  -6.4782534e-02
   3.1586846e-02
   1.0860996e-01
   1.1330682e-01
   9.3422846e-02
   6.8188998e-02
   2.0601727e-02
  -4.2748546e-02
  -6.4158725e-02
  -4.9729371e-02
  -4.2839438e-03
   6.3238533e-02
   1.3528308e-01
   1.6904802e-01
   1.5001591e-01
   1.1897671e-01
   7.4945284e-02
  -7.5374644e-03
   2.1712747e-02
   3.7743670e-02
   3.4160231e-02
   1.0750587e-01
   1.6971988e-01
   1.7131173e-01
   1.6239777e-01
   1.0992134e-01
   5.8008762e-02
  -9.8336398e-03
   1.6516989e-02
   4.0164748e-02
   6.7845641e-02
   1.0555629e-01
   1.5257710e-01
   1.6421177e-01
   1.3488313e-01
   9.0653453e-02
   8.6526066e-03
  -4.6977236e-02
  -5.9538150e-02
  -5.8514820e-02
  -3.6734362e-02
   3.0331421e-02
   8.1273733e-02
   9.7552155e-02
   7.5966045e-02
   5.7811933e-02
  -1.5491442e-02
  -8.6124068e-02
  -7.2989266e-02
  -4.4339567e-02
  -4.8394232e-02
   1.6392767e-02
   3.7245002e-02
   6.1880800e-02
   4.2558241e-02
   1.5865931e-02
  -3.9648522e-02
  -9.9291233e-02
  -9.5322815e-02
  -9.7334120e-02
  -5.7016611e-02
  -1.8860658e-03
   4.4130995e-02
   2.4227317e-02
   1.9423781e-02
  -5.8102422e-04
  -9.7315310e-02
  -1.5042508e-01
  -1.5289409e-01
  -1.3061523e-01
  -1.1556958e-01
  -6.5149620e-02
   8.0245402e-03
   1.1257590e-02
   3.4888168e-03
  -1.1115281e-02
  -8.4388616e-02
  -1.3388526e-01
  -1.3073410e-01
  -1.0760984e-01
  -7.6715737e-02
   2.9210769e-02
   1.4408528e-01
   2.0462960e-01
   2.0669582e-01
   1.8782467e-01
   1.8112504e-01
   1.9581509e-01
   2.5768063e-01
   3.3767619e-01
   4.3134657e-01
   5.6756220e-01
   6.8781505e-01
   7.2244542e-01
   6.6947287e-01
   5.8226059e-01
   4.7928926e-01
   3.5008538e-01
   2.2226655e-01
   1.1044241e-01
   8.7451626e-02
   7.1473487e-02
   5.1355233e-02
   1.2874996e-02
  -3.7678259e-02
  -1.2949211e-01
  -2.2385317e-01
  -2.8655398e-01
  -2.7864545e-01
  -2.4560440e-01
  -2.1744042e-01
  -1.2575844e-01
  -1.0940733e-01
  -6.3110988e-02
  -7.4239576e-02
  -1.0360032e-01
  -1.4733725e-01
  -2.0679624e-01
  -1.7729765e-01
  -1.5176674e-01
  -1.0928271e-01
  -3.5166284e-02
   1.1959302e-02
   1.8512215e-02
  -9.2797404e-04
  -2.2257184e-02
  -8.4587690e-02
  -1.2981280e-01
  -1.1436238e-01
  -1.0381402e-01
  -8.6654330e-02
  -2.6186514e-02
   4.1834693e-02
   6.1084709e-02
   4.6550667e-02
  -4.7078764e-03
  -4.0645880e-02
  -8.8438653e-02
  -1.0123858e-01
  -9.9416091e-02
  -8.0434010e-02
   6.8829326e-03
   4.5973065e-02
   5.4484749e-02
   3.5122618e-02
   1.6186843e-03
  -3.1157893e-02
  -8.3608644e-02
  -7.4623246e-02
  -5.7979226e-02
  -3.6730264e-02
   2.8284200e-02
   8.5186239e-02
   8.4554120e-02
   7.3019402e-02
   4.7200673e-02
  -1.1530606e-02
  -6.8665146e-02
  -8.0670228e-02
  -6.5388185e-02
  -3.9042999e-02
   6.4341671e-03
   5.7929315e-02
   8.7369179e-02
   7.3966788e-02
   4.1072841e-02
   2.9061305e-03
  -5.5374908e-02
  -4.1432895e-02
  -7.9373222e-03
   1.1041377e-02
   9.1703263e-02
   1.3108073e-01
   1.5415867e-01
   1.3113352e-01
   9.8329236e-02
   6.2842535e-02
   1.3221195e-02
   3.6182632e-04
   1.0922859e-02
   3.6258377e-02
   1.0383856e-01
   1.6035803e-01
   1.7927242e-01
   1.6887045e-01
   1.3734026e-01
   8.1077161e-02
   4.6406879e-02
   3.7891131e-02
   5.4515348e-02
   7.7824961e-02
   1.4797311e-01
   2.0953139e-01
   2.0361670e-01
   1.9270573e-01
   1.4342185e-01
   9.6264172e-02
   5.1511206e-02
   4.7150269e-02
   5.4499194e-02
   8.5312452e-02
   1.4922836e-01
   1.9214059e-01
   1.8941611e-01
   1.6028596e-01
   1.3001691e-01
   6.9199013e-02
   1.0652145e-02
   2.7997435e-03
   2.2377198e-02
   3.5692854e-02
   8.8171977e-02
   1.4798107e-01
   1.4962516e-01
   1.2144453e-01
   8.7325337e-02
   2.8317394e-02
  -2.1119563e-02
  -3.2877557e-02
  -1.1839509e-02
   1.8584520e-02
   8.5806335e-02
   1.2742695e-01
   1.3428363e-01
   1.3676675e-01
   1.0227655e-01
   5.2120619e-02
  -1.9008680e-02
  -2.1241534e-02
  -1.5556788e-02
   6.0132334e-03
   6.4400311e-02
   9.2148690e-02
   8.5719678e-02
   5.8890308e-02
   2.5218294e-02
  -3.6647343e-02
  -8.3591703e-02
  -9.0131767e-02
  -8.7243081e-02
  -6.9325181e-02
  -3.8813033e-03
   3.0031137e-02
   1.8848918e-02
  -6.9430451e-03
  -3.6569534e-02
  -8.8703552e-02
  -1.4590596e-01
  -1.4770605e-01
  -1.3423921e-01
  -9.9549673e-02
  -3.8474241e-02
  -5.1911765e-03
   1.6142627e-02
  -1.1054680e-02
  -4.8348713e-02
  -8.5977106e-02
  -1.3912385e-01
  -1.4098390e-01
  -1.2518429e-01
  -1.0043309e-01
  -4.2045164e-02
   1.2976407e-02
   5.9170878e-03
  -7.2752714e-03
  -1.9404730e-02
  -6.2311286e-02
  -1.2148915e-01
  -1.3818689e-01
  -1.1442734e-01
  -7.9951622e-02
  -1.5799678e-02
   2.7390217e-02
   3.4163812e-02
  -1.6978639e-03
  -5.5144844e-02
  -1.2330991e-01
  -1.7118918e-01
  -1.6627497e-01
  -1.4001315e-01
  -1.1862687e-01
  -6.0406869e-02
  -2.1028104e-02
  -2.1038199e-02
  -3.7293953e-02
  -7.7675384e-02
  -1.1825952e-01
  -1.6380759e-01
  -1.5973307e-01
  -1.3590177e-01
  -1.1335148e-01
  -3.9613608e-02
   1.1138393e-02
   1.6323301e-02
  -2.7796628e-04
  -3.9247137e-02
  -1.0065433e-01
  -1.5069525e-01
  -1.3979552e-01
  -1.1205985e-01
  -7.3823507e-02
  -3.4090428e-03
   5.3386663e-02
   7.2380935e-02
   4.9324291e-02
   1.5273742e-02
  -3.4968565e-02
  -8.4559901e-02
  -6.9123390e-02
  -6.7261535e-02
  -5.3153143e-02
   7.5594328e-03
   2.9341870e-02
   4.0787587e-02
   1.5804469e-02
  -2.1705307e-02
  -8.6075022e-02
  -1.1163240e-01
  -1.2834230e-01
  -1.2145412e-01
  -1.0246516e-01
  -5.0683392e-02
   6.3766137e-03
   1.5387380e-02
   9.0441966e-03
  -1.2956472e-02
  -6.8990408e-02
  -1.2063059e-01
  -1.1607912e-01
  -1.0174246e-01
  -6.6436650e-02
  -2.9829743e-03
   6.2406414e-02
   6.1555882e-02
   4.8015686e-02
   1.6528142e-02
  -3.1724854e-02
  -8.5592738e-02
  -9.3493604e-02
  -9.4118192e-02
  -1.1136859e-01
  -5.1873287e-02
  -2.6560408e-04
   3.0796054e-02
   8.6585118e-03
  -1.4132900e-02
  -5.1096562e-02
  -1.0912284e-01
  -1.1048009e-01
  -1.1166517e-01
  -8.3201154e-02
  -2.5530527e-02
   6.2307625e-03
   6.7845108e-03
  -2.9714442e-02
  -5.4435011e-02
  -1.3737031e-01
  -1.8124403e-01
  -1.6691847e-01
  -1.4906420e-01
  -1.3307241e-01
  -6.6386121e-02
   7.4099882e-03
   7.4346389e-03
  -2.0207686e-02
  -4.9475907e-02
  -1.0866841e-01
  -1.7676608e-01
  -1.8881876e-01
  -1.6931055e-01
  -1.5617500e-01
  -8.7540469e-02
  -4.3447330e-02
  -3.7430419e-02
  -4.2721748e-02
  -8.2115467e-02
  -1.4703511e-01
  -1.9014829e-01
  -1.7927235e-01
  -1.6829581e-01
  -1.3268547e-01
  -7.5397144e-02
  -2.4783809e-02
  -1.4458768e-02
  -3.3515872e-02
  -5.9074150e-02
  -1.1951434e-01
  -1.5957876e-01
  -1.6587564e-01
  -1.5110879e-01
  -1.2299823e-01
  -5.5800339e-02
   6.3005335e-03
   9.4532017e-03
  -8.7508713e-03
  -3.0207363e-02
  -9.1573058e-02
  -1.3793184e-01
  -1.2272447e-01
  -7.9486952e-02
  -3.7736051e-02
   6.0677416e-02
   1.4632290e-01
   2.0265791e-01
   2.1355136e-01
   2.4301222e-01
   2.7740017e-01
   3.3893443e-01
   4.2205621e-01
   5.1977333e-01
   6.2013138e-01
   7.3456262e-01
   7.6792408e-01
   6.9016793e-01
   5.9411701e-01
   4.8077013e-01
   2.6468719e-01
   4.9189582e-02
  -8.6309209e-02
  -1.8458508e-01
  -2.3204866e-01
  -2.6105280e-01
  -3.1267336e-01
  -3.7516758e-01
  -4.0354640e-01
  -4.0712140e-01
  -4.1692920e-01
  -4.1591096e-01
  -3.6834335e-01
  -3.3061508e-01
  -2.9493183e-01
  -2.0786714e-01
  -1.2439718e-01
  -9.7465257e-02
  -9.1120243e-02
  -1.1119486e-01
  -1.6142358e-01
  -1.9682459e-01
  -2.0133300e-01
  -1.8495858e-01
  -1.5960447e-01
  -9.7120869e-02
  -6.0955659e-02
  -8.0804470e-02
  -1.1687127e-01
  -1.3707428e-01
  -2.0101333e-01
  -2.4590914e-01
  -2.5096925e-01
  -2.5335261e-01
  -2.2506237e-01
  -1.7011950e-01
  -1.2223448e-01
  -1.2232211e-01
  -1.4188794e-01
  -1.7407450e-01
  -2.2702775e-01
  -2.6721217e-01
  -2.5830647e-01
  -2.4501533e-01
  -2.1149085e-01
  -1.4855224e-01
  -7.9299089e-02
  -7.0461570e-02
  -7.9340598e-02
  -1.1018799e-01
  -1.5351682e-01
  -1.8880060e-01
  -1.9803765e-01
  -1.7828004e-01
  -1.4982413e-01
  -9.0348293e-02
  -4.5245760e-02
  -3.1202798e-02
  -6.9137749e-02
  -1.0516861e-01
  -1.7624466e-01
  -2.1695728e-01
  -2.0068535e-01
  -1.9696514e-01
  -1.5449532e-01
  -8.3499141e-02
  -3.0043418e-02
  -2.1549456e-02
  -5.7421500e-02
  -1.0076164e-01
  -1.5716445e-01
  -2.0995045e-01
  -1.9848438e-01
  -1.9032236e-01
  -1.3669058e-01
  -6.5490655e-02
  -2.8102316e-03
   1.0530807e-02
  -1.1281472e-02
  -3.2997673e-02
  -8.3068666e-02
  -1.2365479e-01
  -1.1519674e-01
  -9.7723126e-02
  -6.6096416e-02
  -3.1990428e-03
   3.9981278e-02
   4.1572404e-02
   2.4729457e-02
  -7.3194415e-03
  -5.6077034e-02
  -1.0122167e-01
  -1.0236107e-01
  -8.1338618e-02
  -5.3517131e-02
   5.7364416e-03
   6.3830444e-02
   7.0243313e-02
   6.5762093e-02
   3.1606901e-02
  -2.6631039e-02
  -7.0322260e-02
  -5.3348870e-02
  -4.1596810e-02
  -1.4233402e-02
   4.6766653e-02
   9.7259204e-02
   9.3174652e-02
   7.6907311e-02
   5.9084748e-02
  -1.4659503e-03
  -4.1034142e-02
  -4.3027803e-02
  -4.3751272e-02
  -3.1538157e-02
   2.3851795e-02
   5.3298693e-02
   6.3114356e-02
   5.4750777e-02
   1.7338040e-02
  -2.4943985e-02
  -6.3218047e-02
  -6.6746968e-02
  -4.8934294e-02
  -2.1129935e-02
   5.7763062e-02
   1.0072451e-01
   9.8606938e-02
   8.4931580e-02
   4.9525930e-02
  -6.0176245e-03
  -6.4321695e-02
  -5.4532819e-02
  -5.5980461e-02
  -4.1810947e-02
   1.3452929e-02
   4.9988183e-02
   5.7959992e-02
   3.1408521e-02
   3.9942302e-03
  -7.2996927e-02
  -1.2885111e-01
  -1.3286223e-01
  -1.2940088e-01
  -1.0747363e-01
  -4.5368136e-02
   3.5035305e-03
  -3.0793673e-04
  -2.1046884e-02
  -7.5522491e-02
  -1.2650812e-01
  -1.7178800e-01
  -1.7852897e-01
  -1.6932151e-01
  -1.4004525e-01
  -8.8771506e-02
  -5.6809207e-02
  -4.3105354e-02
  -3.2277225e-02
  -5.1469391e-02
  -1.0903592e-01
  -1.4758038e-01
  -1.5600644e-01
  -1.3857958e-01
  -1.2951633e-01
  -6.2908910e-02
  -9.7443330e-03
  -1.2424509e-02
  -3.4204640e-02
  -5.6200596e-02
  -1.0788645e-01
  -1.5339047e-01
  -1.4365007e-01
  -1.4229434e-01
  -1.1340660e-01
  -5.2913689e-02
   4.3555910e-03
   2.0780368e-02
   7.8666626e-03
  -2.3888310e-02
  -7.4398642e-02
  -1.1805951e-01
  -1.1571409e-01
  -1.0430687e-01
  -7.4242034e-02
  -4.0678930e-03
   3.2694289e-02
   2.9309260e-02
   3.9198048e-03
  -3.2710316e-02
  -8.5573526e-02
  -1.1946116e-01
  -1.2524235e-01
  -1.2160054e-01
  -9.5741000e-02
  -3.4373643e-02
   1.5123223e-02
   1.2100408e-02
  -3.1816171e-03
  -2.8129610e-02
  -8.9853626e-02
  -1.3285003e-01
  -1.3589950e-01
  -1.1733841e-01
  -8.0017446e-02
  -1.2012443e-02
   2.4895833e-02
   4.7156123e-02
   2.0300424e-02
  -1.7829492e-02
  -7.8815811e-02
  -1.4415188e-01
  -1.3353812e-01
  -1.2036741e-01
  -9.9414827e-02
  -3.1111183e-02
   1.2282410e-02
   1.1656010e-02
  -1.4752292e-02
  -5.0494977e-02
  -9.2343599e-02
  -1.2724232e-01
  -1.3261971e-01
  -1.2677643e-01
  -1.0775554e-01
  -4.2752617e-02
   1.3586150e-02
   1.9812753e-02
  -2.6520277e-03
  -3.5994349e-02
  -9.8170708e-02
  -1.4721568e-01
  -1.5314353e-01
  -1.3838432e-01
  -1.2135265e-01
  -6.0073016e-02
  -1.4020399e-02
  -1.4188734e-02
  -2.7657733e-02
  -5.6319597e-02
  -1.0737803e-01
  -1.5747418e-01
  -1.4636092e-01
  -1.3231403e-01
  -1.0285209e-01
  -3.9040720e-02
   7.7117306e-03
   1.6447386e-02
   2.5857555e-03
  -3.0674963e-02
  -8.1615981e-02
  -1.2771129e-01
  -1.3686112e-01
  -1.2216625e-01
  -7.1490242e-02
  -1.7970206e-02
   3.8631481e-02
   5.6580148e-02
   3.8710509e-02
   6.8004424e-04
  -5.8720955e-02
  -9.5083143e-02
  -1.0159854e-01
  -8.7899121e-02
  -4.5399606e-02
   7.9305462e-03
   5.8846767e-02
   6.0447989e-02
   4.8324361e-02
   2.2920010e-02
  -4.4676312e-02
  -1.0094623e-01
  -1.0098054e-01
  -1.0160902e-01
  -7.6874107e-02
  -1.3703314e-02
   2.3682267e-02
   2.6569955e-02
   1.4421823e-02
  -3.0949107e-02
  -9.4067309e-02
  -1.3742451e-01
  -1.3175741e-01
  -1.2944118e-01
  -1.0206340e-01
  -4.2150452e-02
   7.5906767e-03
   1.6999690e-02
  -1.3609037e-02
  -4.8903513e-02
  -1.1126951e-01
  -1.7354408e-01
  -1.5933499e-01
  -1.4230356e-01
  -1.0709867e-01
  -4.1356299e-02
   8.3915206e-03
   3.8335295e-03
  -6.1460229e-03
  -4.6791822e-02
  -1.0063751e-01
  -1.3919299e-01
  -1.6391723e-01
  -1.4856683e-01
  -1.1958700e-01
  -5.7904235e-02
  -1.6617703e-02
  -9.4603237e-03
  -3.5628173e-02
  -7.4754643e-02
  -1.3443138e-01
  -1.7847712e-01
  -1.7237561e-01
  -1.4809854e-01
  -1.1813869e-01
  -5.5275818e-02
  -5.4649275e-03
  -2.1771049e-02
  -3.1670960e-02
  -6.3910841e-02
  -1.2474233e-01
  -1.6324539e-01
  -1.6128769e-01
  -1.5334013e-01
  -1.2670747e-01
  -6.4373531e-02
  -1.4474686e-02
  -5.9367280e-03
  -2.1808306e-02
  -4.1987218e-02
  -9.4152636e-02
  -1.3540951e-01
  -1.2524328e-01
  -1.1555676e-01
  -7.3284584e-02
  -1.0752017e-02
   3.8561082e-02
   4.2656018e-02
   3.5028487e-02
   6.1629247e-03
  -5.2426607e-02
  -9.8867173e-02
  -9.7868255e-02
  -8.0308367e-02
  -5.2849891e-02
   5.0343360e-03
   6.4303904e-02
   8.0917249e-02
   7.0158496e-02
   3.9757205e-02
  -1.8177325e-02
  -6.3454632e-02
  -7.5244705e-02
  -6.7295587e-02
  -4.2536747e-02
   2.1035972e-02
   6.2190843e-02
   5.6464078e-02
   3.0149401e-02
   8.2723047e-03
  -4.1811429e-02
  -9.9923585e-02
  -8.7986971e-02
  -8.2678517e-02
  -5.1854098e-02
   1.4558320e-03
   5.7414063e-02
   5.4491171e-02
   2.4724445e-02
  -1.5760359e-02
  -7.1965506e-02
  -1.2340622e-01
  -1.3361619e-01
  -1.1372412e-01
  -9.4313818e-02
  -3.3285036e-02
   1.1200043e-02
   1.9843050e-02
   5.9437737e-03
  -1.6406401e-02
  -7.4019359e-02
  -1.3255034e-01
  -1.2731035e-01
  -1.1565378e-01
  -8.5168027e-02
  -2.9047414e-02
   1.5957278e-02
   2.4689725e-02
   9.8892128e-03
  -3.3942827e-02
  -1.0498307e-01
  -1.4377041e-01
  -1.4147689e-01
  -1.3788064e-01
  -1.1187945e-01
  -5.3446693e-02
  -5.2522206e-03
  -4.5745084e-03
  -2.2398802e-02
  -6.0975672e-02
  -1.1618005e-01
  -1.8334388e-01
  -1.7990728e-01
  -1.4967793e-01
  -1.0145786e-01
  -2.1520657e-02
   5.3073443e-02
   1.1004366e-01
   1.3848679e-01
   1.5739358e-01
   1.6672542e-01
   2.2177621e-01
   3.3193454e-01
   4.4515684e-01
   5.7715720e-01
   7.1904454e-01
   8.3705421e-01
   8.6393767e-01
   8.0830464e-01
   6.9319753e-01
   5.5319008e-01
   3.9699269e-01
   2.2651095e-01
   6.7792164e-02
  -5.4995589e-02
  -1.3044922e-01
  -1.8277871e-01
  -2.7248961e-01
  -3.3183054e-01
  -3.9025430e-01
  -4.3548100e-01
  -4.3710730e-01
  -3.7783432e-01
  -3.1629421e-01
  -2.5535856e-01
  -1.6557194e-01
  -7.4762428e-02
  -6.0151883e-02
  -5.5467807e-02
  -8.5860471e-02
  -1.3004051e-01
  -1.6440209e-01
  -1.6600716e-01
  -1.5054351e-01
  -1.2821650e-01
  -6.3838785e-02
  -1.6867237e-02
  -1.4343856e-03
  -3.0250453e-02
  -7.0219568e-02
  -1.2484569e-01
  -1.7371957e-01
  -1.5625738e-01
  -1.4747978e-01
  -1.1374652e-01
  -4.5616826e-02
   1.7254169e-02
   1.8654360e-02
   9.0222641e-03
  -2.2816959e-02
  -7.2419780e-02
  -1.4405672e-01
  -1.9336984e-01
  -1.8602044e-01
  -1.6258145e-01
  -1.2162951e-01
  -5.7154688e-02
  -4.1429398e-02
  -6.7372154e-02
  -1.0750857e-01
  -1.6553192e-01
  -2.1884445e-01
  -2.0400124e-01
  -2.0280977e-01
  -1.7647025e-01
  -1.1212046e-01
  -7.3420828e-02
  -7.5163189e-02
  -9.3344999e-02
  -1.3002622e-01
  -1.7256829e-01
  -2.0364480e-01
  -1.9052735e-01
  -1.7057156e-01
  -1.3914735e-01
  -6.4769196e-02
  -1.5651447e-02
   2.5153713e-03
  -9.5270359e-03
  -3.2993688e-02
  -8.9127246e-02
  -1.3851938e-01
  -1.3625058e-01
  -1.2250782e-01
  -8.0148056e-02
  -1.0451496e-02
   4.5670819e-02
   4.1540401e-02
   3.5145342e-02
  -3.2176410e-03
  -5.9054215e-02
  -1.1157963e-01
  -1.0978231e-01
  -8.7907613e-02
  -6.9100410e-02
  -1.4327961e-02
   2.8623347e-02
   1.7061110e-02
  -2.8610818e-02
  -6.6090675e-02
  -1.4139742e-01
  -1.9519589e-01
  -1.7703621e-01
  -1.5697827e-01
  -1.2882694e-01
  -7.0056535e-02
  -6.5618723e-03
  -7.7495011e-03
  -8.4542042e-03
  -1.7954033e-02
  -7.2406221e-02
  -1.0798471e-01
  -1.0133427e-01
  -8.4950664e-02
  -4.2931716e-02
   2.3916938e-02
   8.5162336e-02
   1.0901570e-01
   9.3143326e-02
   5.7404064e-02
   1.6700371e-02
  -2.8123904e-02
  -3.4333882e-02
  -1.7592415e-02
   1.8453807e-02
   7.2019074e-02
   1.0940027e-01
   1.0509904e-01
   8.9143434e-02
   5.1242401e-02
   3.1682312e-04
  -3.9437503e-02
  -4.1829608e-02
  -3.5369535e-02
  -2.5638646e-03
   5.1815901e-02
   1.0035119e-01
   1.0217205e-01
   7.2632383e-02
   3.3938974e-02
  -2.0673162e-02
  -7.7935236e-02
  -8.6596034e-02
  -9.0262525e-02
  -6.6020192e-02
  -1.5090340e-02
   1.4871097e-02
   1.3670967e-03
  -2.2162213e-02
  -5.6520612e-02
  -1.3311620e-01
  -1.7583890e-01
  -1.7183512e-01
  -1.3753037e-01
  -1.1330427e-01
  -5.5566379e-02
  -1.6980201e-03
  -1.1181188e-03
  -1.6596768e-02
  -4.4810643e-02
  -1.1691754e-01
  -1.6755977e-01
  -1.6196100e-01
  -1.4969753e-01
  -1.1912623e-01
  -5.6949551e-02
  -1.6428068e-02
  -1.3118576e-02
  -3.5501260e-02
  -7.2043329e-02
  -1.3203697e-01
  -1.7774055e-01
  -1.7173086e-01
  -1.4873732e-01
  -1.4730829e-01
  -1.0686184e-01
  -5.5636546e-02
  -6.0457770e-02
  -7.1728941e-02
  -1.0504977e-01
  -1.6351990e-01
  -2.0597195e-01
  -2.1190143e-01
  -1.9736085e-01
  -1.5949646e-01
  -9.4020762e-02
  -5.3330912e-02
  -4.9942779e-02
  -5.5466547e-02
  -9.2738351e-02
  -1.5151338e-01
  -1.9770918e-01
  -1.9582393e-01
  -1.8508515e-01
  -1.5020271e-01
  -1.0645418e-01
  -5.2993349e-02
  -2.9401772e-02
  -4.3622979e-02
  -9.1715848e-02
  -1.5256021e-01
  -1.9330519e-01
  -1.8437341e-01
  -1.6819160e-01
  -1.3423222e-01
  -6.4296269e-02
  -8.4426600e-03
  -9.5999593e-03
  -3.1829961e-02
  -5.6453497e-02
  -1.0823558e-01
  -1.5778873e-01
  -1.6360254e-01
  -1.4125337e-01
  -1.0578393e-01
  -3.9194299e-02
   2.5045079e-03
   1.0063032e-02
  -7.6530023e-03
  -3.1596100e-02
  -8.4336206e-02
  -1.2109678e-01
  -1.2457368e-01
  -1.0526039e-01
  -6.7815839e-02
  -7.6443124e-03
   2.6814523e-02
   2.6595181e-02
   8.6117667e-03
  -2.1836596e-02
  -7.7764758e-02
  -1.2408313e-01
  -1.2911869e-01
  -1.2580875e-01
  -9.2980677e-02
  -4.4700196e-02
  -9.4186224e-03
   2.6830589e-03
  -1.5770918e-02
  -6.1696780e-02
  -1.2593073e-01
  -1.7894844e-01
  -1.7047776e-01
  -1.6121277e-01
  -1.2119062e-01
  -5.0253434e-02
  -2.1917590e-03
  -6.2987219e-04
  -2.3502572e-02
  -3.8260337e-02
  -9.7520274e-02
  -1.7092339e-01
  -1.8468457e-01
  -1.8302525e-01
  -1.5212745e-01
  -9.0803035e-02
  -5.0459611e-02
  -6.5713487e-02
  -9.7621771e-02
  -1.3916796e-01
  -1.9160636e-01
  -2.3607943e-01
  -2.4320126e-01
  -2.2261272e-01
  -1.8885571e-01
  -1.1867125e-01
  -6.9800605e-02
  -6.6690189e-02
  -7.5956219e-02
  -1.0892909e-01
  -1.5800521e-01
  -2.1131683e-01
  -2.0140580e-01
  -1.7930625e-01
  -1.3586371e-01
  -6.8680493e-02
  -2.3997912e-02
  -2.2947854e-02
  -5.0458599e-02
  -8.0866433e-02
  -1.3760850e-01
  -1.8183580e-01
  -1.8111254e-01
  -1.7277640e-01
  -1.3892671e-01
  -8.2797728e-02
  -3.3955136e-02
  -3.4673057e-02
  -7.4256261e-02
  -9.9735801e-02
  -1.5363110e-01
  -1.9247196e-01
  -1.8676079e-01
  -1.8081686e-01
  -1.3913073e-01
  -9.0355855e-02
  -3.2190549e-02
  -3.9492392e-02
  -5.5786167e-02
  -7.5938754e-02
  -1.3006420e-01
  -1.7792536e-01
  -1.7469736e-01
  -1.6779774e-01
  -1.3310298e-01
  -8.8225071e-02
  -4.8650267e-02
  -4.8751939e-02
  -6.4063886e-02
  -9.1604948e-02
  -1.4086155e-01
  -1.8658779e-01
  -1.8417168e-01
  -1.6667865e-01
  -1.2736084e-01
  -5.9819880e-02
  -1.6538253e-02
  -7.3836666e-03
  -1.9838795e-02
  -5.1043506e-02
  -1.0654601e-01
  -1.6187539e-01
  -1.6731321e-01
  -1.5221082e-01
  -1.1357364e-01
  -4.8180967e-02
  -2.5955181e-03
   1.2764099e-03
  -1.2559903e-02
  -4.8358058e-02
  -1.1387918e-01
  -1.4538881e-01
  -1.4596747e-01
  -1.3921746e-01
  -9.6609568e-02
  -4.0782607e-02
   2.1039375e-03
  -8.0875648e-03
  -2.4064116e-02
  -5.1541810e-02
  -1.0827630e-01
  -1.5465052e-01
  -1.5327453e-01
  -1.4375371e-01
  -1.1376444e-01
  -5.1653714e-02
  -5.0160182e-03
  -1.1894637e-02
  -3.3322517e-02
  -7.1769103e-02
  -1.3321501e-01
  -1.6933393e-01
  -1.5853654e-01
  -1.4794238e-01
  -1.1465655e-01
  -4.9329088e-02
  -8.6547240e-03
  -1.3938026e-03
  -2.5640464e-02
  -5.3843567e-02
  -1.0806975e-01
  -1.5557881e-01
  -1.5624260e-01
  -1.5169871e-01
  -1.0812293e-01
  -5.4935338e-02
  -7.2385914e-03
   4.0211061e-03
  -2.0779818e-02
  -5.5458697e-02
  -1.0860774e-01
  -1.4349097e-01
  -1.4778113e-01
  -1.3157044e-01
  -9.2180770e-02
  -4.0491448e-02
   5.1865185e-03
   1.2846933e-02
  -8.1375432e-03
  -4.4973519e-02
  -1.0906938e-01
  -1.5515111e-01
  -1.5751189e-01
  -1.4696903e-01
  -1.1762229e-01
  -6.1529248e-02
  -1.7353338e-02
  -1.9990758e-02
  -4.3525037e-02
  -8.1311011e-02
  -1.3999348e-01
  -1.7836512e-01
  -1.8238012e-01
  -1.4969088e-01
  -1.1469310e-01
  -4.1950495e-02
  -4.6708035e-03
  -9.0290490e-03
  -1.2848586e-02
  -5.8272958e-02
  -1.1646443e-01
  -1.5590723e-01
  -1.5931213e-01
  -1.3896242e-01
  -7.9713095e-02
  -1.5104671e-02
   4.5446503e-02
   4.3171068e-02
   1.1524481e-02
  -4.6562053e-03
  -6.3444257e-02
  -1.1023602e-01
  -1.0370119e-01
  -1.0499947e-01
  -6.9209460e-02
  -3.6252408e-03
   3.5868295e-02
   3.5265945e-02
  -2.4356140e-03
  -3.2806615e-02
  -9.3265822e-02
  -1.3187764e-01
  -1.2573407e-01
  -1.2438892e-01
  -8.8747532e-02
  -2.1279874e-02
   1.6926564e-02
   1.5968999e-02
  -5.4221630e-03
  -4.4710968e-02
  -1.1785519e-01
  -1.5762352e-01
  -1.3817175e-01
  -1.2495126e-01
  -1.0338142e-01
  -5.2903387e-02
  -2.6779057e-02
  -2.7084053e-02
  -5.4137316e-02
  -1.0138197e-01
  -1.7216248e-01
  -2.1110242e-01
  -1.9801289e-01
  -1.7884181e-01
  -1.4364051e-01
  -8.5103707e-02
  -3.8348805e-02
  -3.6759906e-02
  -4.1800346e-02
  -6.3961586e-02
  -1.1676001e-01
  -1.5292066e-01
  -1.4204917e-01
  -1.2825925e-01
  -9.3424808e-02
  -2.5113663e-02
   2.5575948e-02
   3.3615460e-02
   1.6553272e-02
  -1.6967199e-02
  -6.3347689e-02
  -1.0666324e-01
  -9.6215751e-02
  -9.2110744e-02
  -4.9045609e-02
   2.9396819e-03
   3.2693908e-02
   3.0724560e-02
   1.4391699e-02
  -2.3946825e-02
  -7.2633936e-02
  -1.0004549e-01
  -7.0809878e-02
  -1.4567841e-02
   5.8737029e-02
   1.7718471e-01
   2.7752993e-01
   3.9629937e-01
   4.8893554e-01
   5.6895578e-01
   6.0646453e-01
   6.4917330e-01
   7.2772605e-01
   7.6036949e-01
   7.3903731e-01
   7.3804283e-01
   7.0349553e-01
   5.7963822e-01
   4.0125600e-01
   1.9689219e-01
  -3.0639627e-02
  -2.1986002e-01
  -3.0364688e-01
  -3.8358636e-01
  -3.9291778e-01
  -3.4585663e-01
  -2.8508031e-01
  -2.3135231e-01
  -2.0788470e-01
  -1.9183659e-01
  -2.1124028e-01
  -2.2695599e-01
  -1.9247842e-01
  -1.7054565e-01
  -1.1401059e-01
  -3.3873968e-02
   1.6380533e-02
   3.2457626e-02
   2.5784069e-02
  -4.9289772e-03
  -5.1406373e-02
  -8.9157730e-02
  -9.5122205e-02
  -8.4395663e-02
  -5.5467773e-02
   5.5536392e-03
   3.7076524e-02
   3.3024304e-02
   1.8325752e-02
  -1.7070818e-02
  -7.6299791e-02
  -1.2633227e-01
  -1.2002915e-01
  -1.1063485e-01
  -7.6049406e-02
  -1.9614729e-02
   1.7044055e-02
   2.2649462e-02
   1.0443427e-02
  -2.2255521e-02
  -8.6892453e-02
  -1.2075291e-01
  -1.0709389e-01
  -9.5053962e-02
  -6.6743418e-02
   4.0653689e-03
   4.6376400e-02
   4.5038519e-02
   2.3550188e-02
  -1.8869218e-02
  -8.6747439e-02
  -1.2067108e-01
  -9.7778726e-02
  -7.8438299e-02
  -2.8318626e-02
   4.1606223e-02
   7.8329617e-02
   9.1996809e-02
   8.1744071e-02
   4.8896666e-02
  -8.9757959e-03
  -5.3972432e-02
  -5.0474245e-02
  -3.1457216e-02
  -4.8662771e-03
   5.5895212e-02
   1.0568271e-01
   1.1299103e-01
   9.2530175e-02
   5.4905030e-02
  -8.8519112e-03
  -5.5345879e-02
  -3.9292656e-02
  -2.3161239e-02
  -4.8651076e-04
   6.4131508e-02
   1.0965942e-01
   1.2326777e-01
   9.6148765e-02
   6.5310267e-02
   2.0271458e-02
  -8.9747692e-03
  -5.6119113e-03
   1.2786324e-02
   6.0674666e-02
   1.2733709e-01
   1.6389843e-01
   1.5731308e-01
   1.3735987e-01
   1.0301059e-01
   5.0741037e-02
   2.0680547e-02
   1.9186994e-02
   2.9954663e-02
   5.5877313e-02
   1.2766529e-01
   1.7765349e-01
   1.7048846e-01
   1.6058881e-01
   1.3226005e-01
   8.1072420e-02
   4.7920973e-02
   4.7679889e-02
   5.5283194e-02
   9.3388943e-02
   1.5029562e-01
   1.9292677e-01
   1.9685281e-01
   1.8495943e-01
   1.4051870e-01
   8.8424771e-02
   4.6397931e-02
   4.2413214e-02
   6.9237687e-02
   8.6851973e-02
   1.4796168e-01
   2.0016919e-01
   1.9389709e-01
   1.6824931e-01
   1.1826987e-01
   5.6436254e-02
   1.8227147e-02
  -8.0598514e-03
   1.5590912e-02
   7.4759954e-02
   1.1960605e-01
   1.4820383e-01
   1.5078379e-01
   1.2142193e-01
   9.5228228e-02
   3.0384937e-02
  -1.3746212e-02
  -8.8626392e-03
  -1.4632879e-02
   1.6585448e-02
   8.9662006e-02
   1.2065922e-01
   1.1159446e-01
   1.0513342e-01
   5.1706709e-02
   2.5071760e-03
  -5.0173067e-02
  -3.7304658e-02
  -4.8401696e-02
  -3.3858320e-02
   4.1423638e-02
   7.7220545e-02
   4.8139486e-02
   2.1546063e-02
  -3.2519804e-02
  -8.1061419e-02
  -1.2163462e-01
  -1.1615488e-01
  -1.1049080e-01
  -7.1975665e-02
  -2.9719138e-02
   1.7420512e-02
   4.0946791e-02
   6.9884523e-03
  -4.0209528e-02
  -7.5433204e-02
  -1.0880445e-01
  -8.7238924e-02
  -5.3102694e-02
  -1.7727419e-02
   3.3757535e-02
   6.8385385e-02
   6.5932765e-02
   3.1019556e-02
  -1.0628489e-02
  -2.4160883e-02
  -7.2432073e-02
  -8.9231298e-02
  -6.3851196e-02
  -1.8567933e-02
   6.8319194e-02
   8.5387731e-02
   1.0578567e-01
   7.7712655e-02
   5.3323059e-02
  -8.5143566e-03
  -4.6912189e-02
  -3.4571145e-02
  -2.8015722e-02
   6.8686993e-04
   3.6704584e-02
   5.4893773e-02
   6.5098374e-02
   4.3216265e-02
   4.2355260e-02
  -1.8743099e-02
  -5.8086332e-02
  -4.5037217e-02
  -5.3451373e-02
  -1.3307698e-02
   5.1238937e-02
   8.4491218e-02
   1.0014948e-01
   9.6064287e-02
   6.4368700e-02
  -1.5571189e-02
  -5.8577836e-02
  -5.3175956e-02
  -5.2864033e-02
  -3.0161657e-02
   2.6257961e-02
   6.4778969e-02
   6.5026378e-02
   5.4385679e-02
   1.7615827e-02
  -4.2679651e-02
  -7.9926227e-02
  -7.5354784e-02
  -7.7794077e-02
  -3.5517776e-02
   3.3970052e-02
   8.3981868e-02
   8.7405034e-02
   7.3491544e-02
   2.9830567e-02
  -3.1212803e-02
  -4.3250343e-02
  -4.7182498e-02
  -4.4082337e-02
  -7.2624730e-03
   6.3063772e-02
   9.5760800e-02
   1.1151534e-01
   8.8397526e-02
   2.9726572e-02
  -1.6721279e-02
  -6.9053292e-02
  -7.4236997e-02
  -3.4535804e-02
   1.3888606e-02
   7.8580370e-02
   1.1264537e-01
   1.1212376e-01
   1.0473940e-01
   4.6204118e-02
  -7.4980076e-03
  -4.8740724e-02
  -4.2969794e-02
  -5.0148916e-02
  -1.9342956e-02
   3.5007918e-02
   7.0239082e-02
   8.2895584e-02
   6.7399655e-02
   1.5128595e-02
  -3.7259867e-02
  -8.0621698e-02
  -6.5520456e-02
  -5.3054772e-02
  -2.9852719e-02
   6.7169671e-02
   1.2106555e-01
   1.2548470e-01
   9.1724723e-02
   6.6152909e-02
   7.0035292e-03
  -4.5456441e-02
  -3.3736891e-02
  -2.6947636e-02
   2.7276143e-02
   6.8853894e-02
   1.1976523e-01
   1.2033185e-01
   9.3785307e-02
   7.2480885e-02
   1.1417561e-02
  -4.8539588e-02
  -3.9907008e-02
  -2.6175063e-02
   1.0450866e-02
   7.6527256e-02
   1.1320425e-01
   1.0442149e-01
   8.7009001e-02
   2.8341781e-02
  -2.6389830e-02
  -8.1403259e-02
  -7.8814164e-02
  -4.8027763e-02
  -2.3181025e-02
   2.7002932e-02
   8.9967158e-02
   7.7724533e-02
   5.6710582e-02
   4.6770816e-03
  -6.6453486e-02
  -1.0802269e-01
  -9.8046435e-02
  -7.3043560e-02
  -2.3006347e-02
   4.1076390e-02
   1.1391528e-01
   8.7666960e-02
   6.6961431e-02
   4.3462141e-02
  -1.0232421e-02
  -5.4299902e-02
  -6.1543075e-02
  -7.4210269e-02
  -2.4109750e-02
   5.3052022e-02
   1.0183881e-01
   7.2527811e-02
   5.6262832e-02
   3.0104364e-02
  -4.8129917e-02
  -8.1546611e-02
  -7.5280516e-02
  -7.6867132e-02
  -2.8565324e-02
   3.0780904e-02
   4.8741008e-02
   7.6270348e-02
   5.5192328e-02
   1.6212003e-02
  -5.6870846e-02
  -1.0891662e-01
  -9.5603147e-02
  -1.0082364e-01
  -6.2335159e-02
   5.1833574e-03
   1.8956431e-02
   2.5940260e-02
   6.1208476e-03
  -1.8073656e-02
  -8.2313670e-02
  -8.9839643e-02
  -8.6657534e-02
  -8.9687392e-02
  -4.7138064e-02
   6.1170123e-03
   4.7784155e-02
   3.2292868e-02
   1.6294630e-02
  -1.4716403e-02
  -6.5965843e-02
  -1.3713762e-01
  -1.0620944e-01
  -1.0167398e-01
  -7.4181472e-02
   1.0357525e-02
   4.2837170e-02
   6.1559814e-02
   1.6236747e-02
  -1.9999514e-02
  -7.3505977e-02
  -1.1216460e-01
  -9.5006795e-02
  -7.8801162e-02
  -3.2510616e-02
   2.2548771e-02
   5.3967318e-02
   4.8227147e-02
   3.1214610e-02
  -1.0930404e-02
  -5.0134398e-02
  -7.8310348e-02
  -9.9887781e-02
  -9.1474085e-02
  -5.3230218e-02
   3.4623585e-03
   3.5979977e-02
   4.2125535e-02
   1.9647932e-02
  -2.0296442e-02
  -8.0643661e-02
  -1.3460152e-01
  -1.1966412e-01
  -9.7254929e-02
  -7.3278787e-02
  -8.1699193e-03
   3.1130871e-02
   3.5679823e-02
   2.0735605e-02
  -1.8649762e-02
  -9.8209580e-02
  -1.2514589e-01
  -1.2390294e-01
  -1.2379885e-01
  -9.1186177e-02
  -1.7364007e-02
   3.6399499e-02
   4.1228689e-02
   1.5614459e-02
  -2.4167561e-02
  -8.3947998e-02
  -1.1949414e-01
  -1.2963586e-01
  -9.4991784e-02
  -7.2265933e-02
  -2.9960180e-03
   5.5317821e-02
   5.3770983e-02
   3.6669061e-02
  -1.0936506e-02
  -7.2231054e-02
  -1.1713410e-01
  -1.3117644e-01
  -1.0578129e-01
  -5.8376044e-02
   1.5784829e-03
   3.0092090e-02
   1.8978109e-02
   7.2354184e-03
  -2.2801679e-02
  -8.2867709e-02
  -1.1863918e-01
  -9.5360702e-02
  -9.0025781e-02
  -7.3757845e-02
   8.9593804e-03
   4.5583742e-02
   5.2556614e-02
   3.4368344e-02
  -5.6588524e-03
  -5.7386417e-02
  -1.0025810e-01
  -8.7439167e-02
  -6.5572645e-02
  -2.8392514e-02
   5.9416223e-02
   7.2472521e-02
   6.6693703e-02
   3.8416116e-02
  -2.6351187e-02
  -5.4562083e-02
  -1.1368937e-01
  -1.1873789e-01
  -1.1422250e-01
  -8.2127409e-02
  -1.3023159e-02
   3.3885657e-02
   1.7414607e-02
  -1.0757464e-02
  -5.5648633e-02
  -9.8099780e-02
  -1.3748010e-01
  -1.2112342e-01
  -9.9568189e-02
  -7.9352243e-02
  -4.5714686e-03
   3.1309429e-02
   1.3152036e-02
   1.7390444e-03
  -2.9100403e-02
  -8.4216932e-02
  -1.0133152e-01
  -1.0845765e-01
  -9.0643195e-02
  -6.1896298e-02
  -1.6435502e-02
   1.6955354e-02
   1.6373374e-03
   1.2238627e-02
  -8.2199097e-03
  -6.1437478e-02
  -6.0429464e-02
  -1.8225401e-02
   2.8429550e-02
   1.2800155e-01
   3.0256651e-01
   4.5440210e-01
   5.5539792e-01
   6.7382354e-01
   7.2304536e-01
   7.4038555e-01
   7.6927879e-01
   7.8125796e-01
   7.3283974e-01
   6.9589466e-01
   6.8768124e-01
   5.8296789e-01
   3.9935497e-01
   2.0877716e-01
  -1.8974040e-02
  -1.8055429e-01
  -3.3940089e-01
  -4.0530853e-01
  -4.0711603e-01
  -3.8055949e-01
  -2.7048450e-01
  -1.7850637e-01
  -1.3675524e-01
  -1.1540224e-01
  -1.1992075e-01
  -1.4907664e-01
  -1.6516205e-01
  -1.5320892e-01
  -1.1072567e-01
  -4.1862969e-02
   1.5683142e-02
   8.1005304e-02
   8.7422398e-02
   6.1072611e-02
   2.8740946e-02
  -3.7606948e-02
  -8.1937971e-02
  -6.3898806e-02
  -6.2326109e-02
  -8.7216716e-03
   3.9657503e-02
   8.0663183e-02
   6.4572256e-02
   2.9885888e-02
  -1.5831736e-02
  -1.1414263e-01
  -1.4009692e-01
  -1.1517957e-01
  -9.3309816e-02
  -6.3759436e-02
  -7.8967264e-03
   4.0796728e-02
   3.0247303e-02
   1.2848868e-02
  -4.0916925e-02
  -9.2247163e-02
  -1.4789903e-01
  -1.3596685e-01
  -1.2162505e-01
  -8.5403548e-02
  -3.4142019e-02
   1.2916774e-02
   1.3544350e-02
  -1.3340733e-02
  -3.8138473e-02
  -1.1998570e-01
  -1.4452169e-01
  -1.3653349e-01
  -1.2016108e-01
  -7.6302242e-02
  -3.9910962e-03
   2.4686776e-02
   2.6361515e-02
   1.5497302e-02
  -2.0109649e-02
  -8.4839101e-02
  -1.3254573e-01
  -1.1879184e-01
  -1.2009007e-01
  -6.7333605e-02
  -8.3349548e-03
   1.3464196e-02
   3.2236329e-02
   2.4592872e-02
  -3.3027936e-02
  -9.2894639e-02
  -1.2899894e-01
  -1.2778892e-01
  -1.0934710e-01
  -6.5241578e-02
   8.4211695e-03
   4.5624571e-02
   3.7846574e-02
   3.9820631e-02
  -1.0725495e-02
  -8.1262437e-02
  -9.3978556e-02
  -9.1970221e-02
  -8.2027580e-02
  -2.5717670e-02
   5.2673588e-02
   6.9822396e-02
   7.5618564e-02
   5.8320900e-02
   4.0804244e-02
   1.0109427e-02
  -3.6689602e-02
  -4.3895304e-02
  -4.0069829e-02
  -5.4281271e-03
   8.1809207e-02
   1.4445141e-01
   1.3420938e-01
   1.0187032e-01
   7.3959193e-02
   3.5732647e-02
  -5.1164749e-03
   1.5045645e-02
   4.3760321e-02
   9.8021662e-02
   1.5577548e-01
   2.0745701e-01
   2.0119303e-01
   1.7456704e-01
   1.4491978e-01
   8.3803827e-02
   5.3559891e-02
   4.7842729e-02
   5.4649974e-02
   9.9662191e-02
   1.5201328e-01
   1.9777493e-01
   2.1263984e-01
   1.9450080e-01
   1.4864531e-01
   7.2871908e-02
   3.0680456e-02
   2.9109035e-02
   3.8269483e-02
   7.8499533e-02
   1.4129858e-01
   1.9604097e-01
   1.7084995e-01
   1.4141474e-01
   1.1867131e-01
   5.5051798e-02
   4.2117277e-03
   1.5253312e-02
   1.6631696e-02
   4.5168607e-02
   9.7781433e-02
   1.5374130e-01
   1.6487467e-01
   1.0820040e-01
   5.0931709e-02
  -7.5496507e-03
  -5.6614520e-02
  -5.4655929e-02
  -4.0068636e-02
   1.4134472e-02
   5.6106246e-02
   7.7582291e-02
   8.3565018e-02
   6.2799258e-02
   3.4508888e-02
  -3.5270223e-02
  -7.7513417e-02
  -8.1078060e-02
  -6.9636270e-02
  -2.7125320e-02
   3.6269336e-02
   9.5325496e-02
   9.1496735e-02
   6.3016880e-02
  -1.7644328e-03
  -6.8985769e-02
  -1.0558825e-01
  -8.3442657e-02
  -6.4825211e-02
  -1.5186575e-02
   3.8260028e-02
   5.8787760e-02
   5.7112723e-02
   4.5274566e-02
   1.4374898e-02
  -5.5325373e-02
  -1.1220411e-01
  -6.5975716e-02
  -7.1453045e-02
  -4.5509197e-02
   3.4690600e-02
   6.2467436e-02
   6.3230110e-02
   5.0623992e-02
   2.2228013e-02
  -4.4330983e-02
  -8.2253285e-02
  -7.1948644e-02
  -7.5127305e-02
  -6.8991922e-02
   1.6465314e-02
   7.6350322e-02
   8.5267781e-02
   7.4364886e-02
   2.6636746e-03
  -5.1783252e-02
  -7.2901755e-02
  -5.7345086e-02
  -5.5597952e-02
  -1.4458573e-02
   5.0027623e-02
   1.0608411e-01
   1.1800879e-01
   5.9065074e-02
   4.6269003e-02
  -4.3166382e-02
  -8.8381074e-02
  -5.3290600e-02
  -5.1677942e-02
  -4.0162263e-02
   4.4203515e-02
   7.9541547e-02
   9.1565397e-02
   4.4449733e-02
  -1.9318573e-03
  -5.2996412e-02
  -7.8380818e-02
  -2.5473239e-02
  -4.3343029e-02
  -8.8927890e-03
   7.6106852e-02
   9.5540472e-02
   1.0811330e-01
   9.5689024e-02
   4.6475901e-02
  -1.3265198e-02
  -4.5904357e-02
  -4.4270415e-02
  -1.8432734e-02
   1.9736376e-03
   7.0419615e-02
   1.1512676e-01
   1.2068254e-01
   1.1317547e-01
   6.3246442e-02
   1.1053610e-03
  -3.2344826e-02
  -3.5055061e-02
  -3.6524753e-03
  -5.0903846e-04
   6.1915065e-02
   1.0470518e-01
   1.0005277e-01
   9.5166624e-02
   5.7533805e-02
  -9.4876603e-03
  -7.8605353e-02
  -6.9025105e-02
  -4.5856897e-02
  -1.5335216e-02
   5.4640019e-02
   9.5871884e-02
   9.9903941e-02
   6.3409710e-02
   3.3596586e-02
  -2.3247052e-02
  -4.7688252e-02
  -5.6353364e-02
  -4.2405681e-02
  -2.0322302e-02
   3.9688958e-02
   9.2006325e-02
   8.0054110e-02
   5.0840765e-02
   1.0598123e-02
  -3.9904861e-02
  -8.9908606e-02
  -8.4630065e-02
  -7.2371732e-02
  -2.1108001e-02
   2.6422788e-02
   6.1428274e-02
   7.1543010e-02
   4.7308305e-02
   8.7716101e-03
  -4.3961295e-02
  -1.0549212e-01
  -9.5549882e-02
  -5.7641942e-02
  -3.4096543e-02
   5.7222582e-02
   9.2325666e-02
   6.7693217e-02
   4.5537280e-02
   1.6896240e-02
  -2.8672878e-02
  -5.9788823e-02
  -5.9187922e-02
  -3.4610620e-02
   3.1314596e-03
   7.3436949e-02
   1.1758065e-01
   1.1460331e-01
   1.0329725e-01
   5.7099156e-02
  -1.1100018e-03
  -3.7978192e-02
  -1.9685683e-02
  -7.9985119e-03
   2.7317100e-02
   1.0751265e-01
   1.2436657e-01
   1.0738257e-01
   7.1843982e-02
   3.9557773e-02
   1.2280974e-02
  -6.1942686e-03
  -1.7320283e-02
  -1.1084819e-02
   2.5659780e-02
   8.6972815e-02
   1.2470950e-01
   1.1941574e-01
   8.8498326e-02
   5.6856529e-02
  -8.6664633e-03
  -5.3109040e-02
  -4.4103332e-03
  -1.1162348e-02
   1.0527840e-02
   8.1099994e-02
   1.1296890e-01
   1.0644187e-01
   8.0982215e-02
   3.9179821e-02
  -1.8736971e-02
  -5.7876734e-02
  -4.4663292e-02
  -5.0400590e-02
  -1.5566747e-02
   7.0421424e-02
   1.0860671e-01
   1.1589961e-01
   9.7361222e-02
   8.8245528e-02
   2.7141862e-02
  -2.0647949e-02
  -1.7861782e-02
   4.5140707e-03
   3.2678563e-02
   8.8571960e-02
   1.4228314e-01
   1.3930207e-01
   1.1547484e-01
   8.9270765e-02
   1.2330991e-02
  -3.9837626e-02
  -4.0451803e-02
  -2.9702056e-02
   1.8591364e-03
   5.5916743e-02
   8.0620807e-02
   9.4169606e-02
   7.7863927e-02
   3.4543110e-02
  -3.0214895e-02
  -7.8437233e-02
  -9.8037154e-02
  -5.7228002e-02
  -1.9360726e-03
   8.0707218e-02
   1.1628684e-01
   1.2909827e-01
   1.0099768e-01
   7.8352252e-02
   4.3885120e-02
  -2.8370283e-02
  -1.9307155e-02
   9.9548680e-03
   4.0706513e-02
   1.0759742e-01
   1.4114217e-01
   1.2553823e-01
   1.2379835e-01
   6.8146688e-02
   9.3210207e-03
  -3.4618141e-02
  -3.5013556e-02
   4.1673755e-02
   3.3798228e-02
   1.0884060e-01
   1.4169862e-01
   1.5037778e-01
   1.2861630e-01
   7.9573091e-02
   6.6262629e-03
  -3.2140931e-02
  -1.6555332e-02
  -3.9199652e-03
   2.7562979e-02
   1.1281773e-01
   1.4841912e-01
   1.5257817e-01
   1.2284157e-01
   9.0553129e-02
   2.0186477e-02
  -2.4561056e-02
  -5.3274057e-02
  -7.4483066e-02
  -7.3666155e-02
   5.7187407e-04
   2.9208851e-02
   2.3719885e-02
   9.5085696e-03
  -3.5577357e-02
  -9.7055268e-02
  -1.1594619e-01
  -1.2720697e-01
  -1.2349044e-01
  -1.0480829e-01
  -4.2280229e-02
   5.2008678e-03
   1.9622336e-02
  -2.3864509e-02
  -6.4464446e-02
  -1.3839238e-01
  -1.7416379e-01
  -1.6073564e-01
  -1.3579278e-01
  -9.3745023e-02
  -3.2985354e-02
   1.4207044e-03
  -4.6994142e-04
   1.9924140e-03
  -1.9790508e-02
  -8.4723149e-02
  -1.0812750e-01
  -1.1633050e-01
  -1.0243762e-01
  -8.8651261e-02
  -1.0910249e-02
   2.3976993e-02
   2.8401419e-02
  -2.3869770e-02
  -6.0971813e-02
  -1.2824244e-01
  -1.6533996e-01
  -1.7370897e-01
  -1.4257246e-01
  -9.8671643e-02
  -2.8490260e-02
   2.2370612e-02
   1.8994347e-02
  -1.5751238e-02
  -4.2857199e-02
  -1.1641940e-01
  -1.4157593e-01
  -1.2665040e-01
  -1.2557667e-01
  -9.9971992e-02
  -5.3191748e-02
  -2.3069610e-02
  -1.8749680e-02
  -6.1639959e-02
  -9.3158991e-02
  -1.5327240e-01
  -1.8853772e-01
  -1.8222336e-01
  -1.7001160e-01
  -1.4421575e-01
  -6.5824756e-02
  -2.7415782e-02
  -2.3861376e-02
  -6.0248628e-02
  -6.1017632e-02
  -9.0789117e-02
  -8.0086253e-02
  -1.1000128e-02
   4.0295473e-02
   1.7948926e-01
   3.5272464e-01
   5.3765848e-01
   6.2956779e-01
   7.2529182e-01
   8.1107964e-01
   8.0976136e-01
   7.3293576e-01
   6.8160297e-01
   6.3379150e-01
   5.5398024e-01
   5.0067093e-01
   3.9797110e-01
   2.3074309e-01
   4.5727012e-02
  -8.1072142e-02
  -2.2550085e-01
  -3.5306467e-01
  -3.3959971e-01
  -3.1897290e-01
  -2.7210618e-01
  -1.3917824e-01
  -5.7548790e-02
  -1.8735414e-02
  -2.6820799e-02
  -4.0403710e-02
  -8.2681293e-02
  -1.0467141e-01
  -9.1582065e-02
  -8.3015377e-02
  -4.8855631e-02
   3.1402589e-02
   6.8421958e-02
   6.8754768e-02
   4.7443838e-02
   1.7824468e-02
  -5.5597425e-02
  -7.4316425e-02
  -6.0570457e-02
  -4.4401722e-02
  -6.8939610e-03
   6.8480302e-02
   9.0430024e-02
   1.0204749e-01
   7.0178932e-02
   3.9879810e-02
  -2.4541771e-02
  -6.7308189e-02
  -6.8754964e-02
  -4.6440445e-02
  -1.2930100e-03
   9.3040124e-02
   1.1470758e-01
   9.7540407e-02
   9.6724981e-02
   5.3026292e-02
  -7.2279389e-03
  -1.7631761e-02
  -7.4965635e-03
   2.3416974e-02
   3.4051463e-02
   9.8078515e-02
   1.3940004e-01
   1.4858946e-01
   1.1744051e-01
   9.9360076e-02
   4.3902766e-02
  -1.7772841e-02
  -2.3619559e-02
  -2.2635412e-03
   6.9736003e-03
   8.0970570e-02
   1.2672528e-01
   1.1951040e-01
   9.4900341e-02
   5.2466037e-02
  -2.2469215e-03
  -2.9026121e-02
  -4.4069061e-02
  -2.3469547e-02
   1.0791923e-02
   6.1005534e-02
   1.1458074e-01
   1.0629153e-01
   7.6762029e-02
   6.5331592e-02
  -1.1733975e-02
  -6.6067316e-02
  -2.9433687e-02
  -4.7038177e-03
   3.2157388e-02
   9.9620382e-02
   1.4794269e-01
   1.4647534e-01
   1.3013374e-01
   1.1109570e-01
   2.8432580e-02
   5.6340672e-03
   3.7644995e-02
   5.0875566e-02
   5.5006926e-02
   1.0098517e-01
   1.3015322e-01
   1.4223492e-01
   1.1154078e-01
   9.2316854e-02
   4.1626467e-02
   3.5048252e-02
   2.7955412e-02
   4.9834020e-02
   8.7713372e-02
   1.5338020e-01
   2.0254635e-01
   1.8870906e-01
   1.7098896e-01
   1.3636910e-01
   5.2023496e-02
   2.9622551e-02
   6.0022307e-02
   8.0172498e-02
   1.0195865e-01
   1.9436318e-01
   2.1598011e-01
   2.1290563e-01
   1.8345210e-01
   1.6352393e-01
   9.9062558e-02
   5.2995906e-02
   6.4738597e-02
   6.6865786e-02
   8.4143034e-02
   1.5235648e-01
   2.0856898e-01
   2.0880650e-01
   1.6445936e-01
   1.2592400e-01
   6.4233652e-02
   1.8779003e-02
   1.8264992e-02
   3.7302369e-02
   6.1194446e-02
   1.1783855e-01
   1.7016797e-01
   1.3550952e-01
   9.7900786e-02
   7.6716531e-02
   2.2309625e-02
  -2.1604952e-02
  -1.8308083e-02
   9.8944899e-03
   1.5997180e-02
   8.6537008e-02
   1.2633906e-01
   1.1651267e-01
   7.4457175e-02
   5.8472836e-02
  -3.9608142e-02
  -7.6347655e-02
  -8.2534543e-02
  -5.6025232e-02
  -1.3289032e-02
   5.1258682e-02
   7.1266793e-02
   7.0269130e-02
   3.7625458e-02
   9.1255330e-03
  -7.2787574e-02
  -8.6153344e-02
  -6.7349330e-02
  -6.5835279e-02
  -3.6196380e-02
   3.5347180e-02
   4.8595395e-02
   4.8847601e-02
   2.5053533e-02
   4.2988013e-03
  -5.9006751e-02
  -7.7281030e-02
  -6.2737461e-02
  -7.0920368e-02
  -2.6034322e-02
   4.0238967e-02
   5.7208696e-02
   4.2123844e-02
   2.7523824e-02
   1.3268140e-02
  -3.8379914e-02
  -8.8749962e-02
  -8.4565573e-02
  -4.9606551e-02
  -1.1202302e-02
   6.9386137e-02
   8.6448643e-02
   6.6395579e-02
   4.5784350e-02
   8.2370874e-03
  -3.6627237e-02
  -7.4980721e-02
  -6.6668992e-02
  -3.9555353e-02
  -1.5751534e-02
   5.6006080e-02
   8.4339727e-02
   6.8829812e-02
   4.4346877e-02
   1.6330417e-02
  -2.9050441e-02
  -7.1132657e-02
  -5.2080616e-02
  -3.2071443e-02
  -1.6210127e-02
   4.0971626e-02
   8.1128020e-02
   8.6551876e-02
   7.4266066e-02
   2.9437166e-02
  -4.9520842e-02
  -9.5978708e-02
  -7.3454140e-02
  -3.7998331e-02
  -1.0288366e-02
   5.9397561e-02
   8.0006326e-02
   6.4383959e-02
   3.8300254e-02
   1.3066403e-02
  -4.1386329e-02
  -7.9439184e-02
  -8.5098794e-02
  -6.9877037e-02
  -5.7678061e-02
   7.3406493e-03
   4.0702872e-02
   6.5638360e-02
   2.3885563e-02
  -4.6498335e-04
  -4.8428764e-02
  -9.1200229e-02
  -1.0185690e-01
  -9.3472264e-02
  -5.1228638e-02
   2.0417420e-02
   5.2331587e-02
   4.6892373e-02
   1.8212796e-02
  -3.2312544e-02
  -7.9152835e-02
  -1.2052189e-01
  -1.1663612e-01
  -6.9917715e-02
  -4.6059772e-02
   1.9979801e-02
   4.0512443e-02
   3.3858093e-02
  -8.6888176e-04
  -1.2820031e-02
  -7.2869301e-02
  -1.1193603e-01
  -1.0580326e-01
  -8.9830240e-02
  -6.5392892e-02
   3.5929570e-03
   3.8304601e-02
   2.8798264e-02
   1.1810691e-02
  -3.9598282e-02
  -7.5041343e-02
  -1.0097051e-01
  -8.8993115e-02
  -7.0558047e-02
  -4.4031703e-02
   1.5479863e-02
   3.5398404e-02
   3.4556572e-02
   5.4184512e-03
  -4.6357171e-03
  -5.8827351e-02
  -1.0821944e-01
  -1.0634467e-01
  -8.6357575e-02
  -6.7589953e-02
  -6.6212175e-03
   1.8032926e-02
   2.0534996e-02
   5.0934118e-03
  -8.0405444e-03
  -9.8723595e-02
  -1.1609286e-01
  -1.1608833e-01
  -7.8757655e-02
  -2.1729716e-02
   1.8005269e-02
   4.3044490e-02
   4.3950441e-02
   2.4846340e-02
  -1.5820511e-04
  -6.0100964e-02
  -9.4192442e-02
  -1.0034975e-01
  -7.1976117e-02
  -3.2114548e-02
   4.0821375e-02
   7.2871786e-02
   6.8675844e-02
   3.2875028e-02
  -5.9387648e-03
  -7.9236208e-02
  -1.3909382e-01
  -1.1629977e-01
  -8.4423519e-02
  -7.5188566e-02
   1.3848119e-02
   2.9528369e-02
   7.8568371e-04
  -9.4881944e-03
  -2.7067513e-02
  -8.6744132e-02
  -1.1394466e-01
  -1.0276049e-01
  -6.7205565e-02
  -4.0142311e-02
   3.1526936e-02
   5.2999884e-02
   5.4368735e-02
   1.8258360e-02
  -7.0533932e-03
  -5.2959041e-02
  -9.0367198e-02
  -8.6942457e-02
  -4.8359160e-02
  -2.7139599e-02
   5.2035488e-02
   7.4671831e-02
   6.0689260e-02
   4.2225204e-02
   1.2393066e-02
  -4.6959504e-02
  -7.9890781e-02
  -7.7891593e-02
  -6.4957055e-02
  -2.3961629e-02
   3.7750329e-02
   7.8918456e-02
   6.0200777e-02
   2.0971378e-02
   2.0505799e-02
  -4.2424416e-02
  -7.9292509e-02
  -6.6419144e-02
  -3.0034479e-02
  -6.9519759e-03
   5.4403264e-02
   8.6756276e-02
   7.5983047e-02
   4.9392009e-02
   9.4938546e-03
  -5.8463636e-02
  -9.9301043e-02
  -9.4894547e-02
  -4.3482480e-02
  -2.5968476e-02
   2.5510593e-02
   7.9312062e-02
   6.7460884e-02
   4.0538219e-02
   1.3886688e-02
  -6.4889067e-02
  -9.1374471e-02
  -9.5516809e-02
  -7.9157390e-02
  -5.3368785e-02
   9.4143433e-03
   2.5814715e-02
   4.1073305e-02
   3.9950559e-02
   5.8845880e-03
  -6.2417809e-02
  -9.7850268e-02
  -8.0490603e-02
  -6.8986836e-02
  -5.1506269e-02
   2.2017183e-02
   4.7713940e-02
   5.0061461e-02
   1.3620497e-02
   4.4033675e-03
  -6.0933421e-02
  -9.0826693e-02
  -8.7121259e-02
  -6.9294195e-02
  -4.7891663e-02
   1.5834329e-02
   5.3256117e-02
   3.8454559e-02
   9.7123614e-03
  -3.9132566e-02
  -9.5010750e-02
  -1.3188698e-01
  -1.3270101e-01
  -1.0838024e-01
  -6.9377487e-02
  -3.0222694e-03
   2.6503819e-02
   2.0209243e-02
  -1.5156580e-02
  -3.2030269e-02
  -9.5402283e-02
  -1.0844954e-01
  -9.9142028e-02
  -8.4808081e-02
  -6.3463774e-02
   1.1598993e-02
   5.4179223e-02
   5.1008980e-02
   1.1518292e-04
  -1.5773919e-02
  -7.7834045e-02
  -9.5921406e-02
  -9.6455571e-02
  -8.4719116e-02
  -5.2108996e-02
   2.6320150e-02
   5.7003870e-02
   6.1782807e-02
   3.0651411e-02
   9.8729522e-03
  -3.8031805e-02
  -8.3189973e-02
  -7.8243869e-02
  -4.8812484e-02
  -3.7623712e-02
   2.4103357e-02
   5.9675728e-02
   7.5318529e-02
   4.8322198e-02
   1.2061983e-02
  -5.8515351e-02
  -7.0795677e-02
  -6.5692007e-02
  -7.4062366e-02
  -2.9908550e-02
   4.2620772e-02
   8.2309417e-02
   7.7673568e-02
   4.5540855e-02
   1.6264110e-02
  -6.2420230e-02
  -1.0648362e-01
  -9.6639207e-02
  -5.5912401e-02
  -4.4759521e-02
   8.3362432e-03
   4.1835386e-02
   3.2297842e-02
  -1.3376512e-02
  -2.1270971e-02
  -8.1148508e-02
  -1.1175930e-01
  -1.0234278e-01
  -8.1303678e-02
  -4.9007557e-02
   1.9731855e-02
   4.2222540e-02
   2.7567263e-02
   9.2038255e-03
  -2.5401125e-02
  -8.1488625e-02
  -1.2274418e-01
  -1.0968681e-01
  -7.0596911e-02
  -4.7346455e-02
   1.3519523e-02
   5.1749261e-02
   4.7834616e-02
   6.8873045e-03
  -3.6572591e-02
  -1.0231468e-01
  -1.1833959e-01
  -9.0080131e-02
  -1.9090103e-02
   3.8910659e-02
   1.6965902e-01
   2.4338691e-01
   3.2066677e-01
   3.6258748e-01
   4.4177114e-01
   4.6163533e-01
   5.0893612e-01
   6.1002759e-01
   6.6737093e-01
   6.7895102e-01
   6.5200167e-01
   6.5497515e-01
   5.8781590e-01
   4.2933484e-01
   2.6127791e-01
   8.4476298e-02
  -6.4174144e-02
  -1.3462459e-01
  -1.8984560e-01
  -2.2234601e-01
  -1.8847545e-01
  -1.5123226e-01
  -1.3700970e-01
  -1.3901814e-01
  -1.2914414e-01
  -1.7921831e-01
  -2.0632241e-01
  -2.0623764e-01
  -1.6660946e-01
  -1.0462345e-01
  -6.9647252e-03
   4.1623750e-02
   6.6660221e-02
   4.5379189e-02
   8.4042694e-03
  -6.1037288e-02
  -8.5028241e-02
  -9.1644514e-02
  -7.6369513e-02
  -6.3604241e-02
   8.6102875e-03
   6.4686566e-02
   6.0219682e-02
   2.5962476e-02
  -6.2415761e-04
  -4.7981210e-02
  -6.6873997e-02
  -6.1294457e-02
  -3.5543368e-02
  -1.6888940e-02
   4.7212215e-02
   7.6446262e-02
   6.9933064e-02
   5.3453714e-02
   1.7741011e-02
  -3.4797655e-02
  -6.6369304e-02
  -5.5679156e-02
  -3.5252061e-02
  -1.9929305e-02
   5.7686361e-02
   9.6523363e-02
   8.8773743e-02
   5.6665218e-02
   2.6790581e-02
  -6.1836572e-02
  -8.5567720e-02
  -8.3680294e-02
  -5.0680579e-02
  -2.3097015e-02
   5.3409420e-02
   7.5334836e-02
   7.2356179e-02
   5.4437136e-02
   1.0240991e-02
  -6.5730987e-02
  -9.6549226e-02
  -8.2522669e-02
  -6.4444574e-02
  -1.9129689e-02
   3.4447065e-02
   6.7373025e-02
   8.3059375e-02
   5.5011675e-02
   3.4061440e-02
  -4.7848090e-02
  -7.6018854e-02
  -6.3385304e-02
  -5.3405054e-02
  -2.0998899e-02
   5.3211411e-02
   1.1084159e-01
   1.0979061e-01
   8.1223319e-02
   5.0671293e-02
  -1.1841928e-02
  -2.2536877e-02
  -1.8103490e-02
  -3.1160880e-03
   1.4995097e-02
   1.0526568e-01
   1.3900918e-01
   1.3027375e-01
   8.8043201e-02
   6.8954728e-02
   2.1750539e-02
  -1.2005226e-02
  -4.1871620e-03
   1.1398245e-02
   3.9287482e-02
   1.0691298e-01
   1.4920912e-01
   1.4716314e-01
   1.1091459e-01
   8.9494933e-02
   3.7365045e-02
  -4.7958749e-03
   5.2142893e-03
   3.2483879e-02
   6.7195339e-02
   1.5186721e-01
   1.7576883e-01
   1.9028975e-01
   1.6813182e-01
   1.2168138e-01
   3.5606041e-02
  -5.2245286e-03
   1.2590565e-02
   4.3680914e-02
   8.6717825e-02
   1.6376576e-01
   2.0385361e-01
   1.9126148e-01
   1.6185792e-01
   1.3618637e-01
   6.4897252e-02
   3.3753421e-02
   4.1056486e-02
   5.0214594e-02
   6.7030417e-02
   1.3855338e-01
   1.6701533e-01
   1.5942559e-01
   1.4179666e-01
   1.0020594e-01
   3.4625481e-02
   1.1498753e-02
   1.7985871e-02
   4.5225421e-02
   6.7012397e-02
   1.5036215e-01
   1.4396149e-01
   1.1825622e-01
   8.4145090e-02
   5.4929618e-02
   6.1617561e-05
  -2.8019662e-02
  -1.6403296e-02
  -9.8573778e-04
   3.3163681e-02
   9.1692318e-02
   1.1825935e-01
   9.6367649e-02
   6.2304295e-02
   1.0038896e-02
  -4.5625059e-02
  -8.1121186e-02
  -7.9757699e-02
  -5.1083105e-02
  -2.5515462e-02
   3.8439691e-02
   1.0340749e-01
   1.0166233e-01
   6.5778811e-02
   2.7515445e-02
  -4.5355196e-02
  -8.5120460e-02
  -5.3086897e-02
  -2.4615077e-02
   8.0922360e-03
   8.1570496e-02
   1.1142270e-01
   7.6537527e-02
   4.9509025e-02
   2.8227482e-02
  -3.5213661e-02
  -6.2664045e-02
  -5.9615807e-02
  -3.9259858e-02
  -6.1201078e-03
   6.3811224e-02
   8.5644996e-02
   8.9716815e-02
   6.3088253e-02
   3.2983909e-02
  -2.5871533e-02
  -5.9086448e-02
  -6.2719103e-02
  -3.6490450e-02
  -1.2597353e-03
   5.0941411e-02
   9.8439147e-02
   9.6528830e-02
   5.2680536e-02
   1.3365609e-02
  -6.1211395e-02
  -9.3138862e-02
  -8.9404128e-02
  -5.6896581e-02
  -2.6065889e-02
   5.4342534e-02
   7.4046293e-02
   6.4566513e-02
   4.1905129e-02
   1.6888579e-02
  -4.2911728e-02
  -7.6191389e-02
  -7.1065874e-02
  -5.5048247e-02
  -3.8048492e-02
   2.1228081e-02
   5.9443964e-02
   6.9022450e-02
   3.9256483e-02
   1.0338059e-02
  -6.8691608e-02
  -8.6205000e-02
  -6.7409080e-02
  -4.1496917e-02
  -2.6423424e-02
   4.7556886e-02
   7.0771025e-02
   6.4541549e-02
   3.4934591e-02
   1.3641078e-02
  -6.7471312e-02
  -9.4267020e-02
  -8.5691734e-02
  -5.7194741e-02
  -3.4551929e-02
   4.4645965e-02
   7.9332100e-02
   6.0651424e-02
   4.4670130e-02
   1.9001570e-02
  -3.1454432e-02
  -6.0665831e-02
  -6.9183779e-02
  -6.8110174e-02
  -4.1245868e-02
   3.9554462e-02
   6.1127021e-02
   6.5506610e-02
   4.6418859e-02
   1.8179167e-02
  -5.6808589e-02
  -8.8131553e-02
  -7.1538087e-02
  -5.3642130e-02
  -2.8605182e-02
   3.7503321e-02
   6.2094795e-02
   6.6767715e-02
   2.8108740e-02
   7.3293344e-03
  -5.7014183e-02
  -8.7916347e-02
  -6.6578035e-02
  -6.6420335e-02
  -4.3816740e-02
   4.5400948e-02
   7.0404742e-02
   7.1253716e-02
   5.5703429e-02
   2.0490040e-02
  -5.3302875e-02
  -8.7914418e-02
  -8.5636424e-02
  -7.2535318e-02
  -5.1066980e-02
   2.8299707e-02
   6.5698492e-02
   6.6672794e-02
   3.9885622e-02
   1.7025677e-02
  -4.9429769e-02
  -8.4199035e-02
  -8.6809426e-02
  -6.6590529e-02
  -3.0708213e-02
   5.0304132e-02
   6.6890219e-02
   6.4423403e-02
   3.2358475e-02
   1.3321167e-02
  -5.5291742e-02
  -8.6178093e-02
  -6.2360684e-02
  -4.9410771e-02
  -3.3183781e-02
   4.6303036e-02
   7.7022492e-02
   6.5863839e-02
   4.6146020e-02
   2.0993750e-02
  -4.8915228e-02
  -7.0974128e-02
  -7.1358423e-02
  -7.2677339e-02
  -3.8323430e-02
   3.9411635e-02
   6.1896765e-02
   6.0573160e-02
   2.8116846e-02
   1.0159775e-02
  -4.6120292e-02
  -7.9344933e-02
  -8.0806112e-02
  -7.2789647e-02
  -5.0459452e-02
   2.7769609e-02
   6.1767709e-02
   6.8695568e-02
   4.3326023e-02
   2.5789844e-02
  -5.3742562e-02
  -8.7310235e-02
  -7.2536123e-02
  -4.9347603e-02
  -2.1563395e-02
   3.9840703e-02
   6.5554341e-02
   5.1962758e-02
   2.8481599e-02
   7.3856106e-03
  -5.5358325e-02
  -8.5338871e-02
  -7.4428823e-02
  -4.6897118e-02
  -1.0083869e-02
   5.2297363e-02
   8.2106650e-02
   7.0976997e-02
   4.4227959e-02
   1.4269742e-02
  -6.3006133e-02
  -8.2247701e-02
  -7.2920216e-02
  -4.5368287e-02
  -1.8588761e-02
   6.0527553e-02
   7.3538295e-02
   7.6355086e-02
   3.8727226e-02
   5.8440691e-03
  -5.4954667e-02
  -8.7992717e-02
  -9.1113584e-02
  -7.6150150e-02
  -2.9207344e-02
   3.8179556e-02
   6.9130370e-02
   6.0018906e-02
   3.4911660e-02
   6.7285557e-03
  -7.0508895e-02
  -8.6551947e-02
  -9.1063674e-02
  -7.3279803e-02
  -4.9698691e-02
   2.3746274e-02
   5.6916260e-02
   4.5854572e-02
   2.0002168e-02
  -1.0901109e-03
  -7.3381632e-02
  -9.7565661e-02
  -8.8588726e-02
  -7.1005466e-02
  -4.2849956e-02
   3.0322017e-02
   5.8860036e-02
   5.6383001e-02
   3.8272835e-02
   1.6866707e-02
  -4.4626719e-02
  -6.8515242e-02
  -6.0998489e-02
  -5.7945507e-02
  -3.5192858e-02
   4.7287128e-02
   6.8892174e-02
   5.7868930e-02
   3.2673275e-02
   7.6421085e-04
  -5.4922974e-02
  -7.7061711e-02
  -7.4673908e-02
  -6.2500387e-02
  -2.1691990e-02
   5.6868522e-02
   8.1689143e-02
   7.4706343e-02
   4.9156775e-02
   2.6366325e-02
  -3.4527425e-02
  -6.3708231e-02
  -5.2022654e-02
  -2.9030302e-02
  -1.2481381e-02
   5.6946614e-02
   7.1375594e-02
   5.5730813e-02
   3.0865702e-02
   9.4909380e-03
  -6.4031258e-02
  -1.0517137e-01
  -1.0301164e-01
  -6.7544927e-02
  -4.1966002e-02
   4.3396613e-02
   6.3476187e-02
   5.7891174e-02
   2.5383929e-02
  -1.1123258e-02
  -8.4482927e-02
  -1.0599552e-01
  -1.0182568e-01
  -8.7026897e-02
  -5.0260117e-02
   1.9676007e-02
   4.8604148e-02
   5.8329812e-02
   3.1579047e-02
  -3.9558469e-03
  -7.2852920e-02
  -9.6086599e-02
  -9.4612794e-02
  -6.5778624e-02
  -1.5988146e-02
   4.2687887e-02
   6.7720070e-02
   5.7355862e-02
   2.0198437e-02
   5.1117827e-04
  -7.0147096e-02
  -8.9808100e-02
  -8.2854983e-02
  -8.2132990e-02
  -5.2261055e-02
   1.9920309e-02
   6.9836867e-02
   9.4791590e-02
   1.0615496e-01
   1.2492287e-01
   1.0597612e-01
   1.2071199e-01
   1.9768013e-01
   2.7505040e-01
   3.7460898e-01
   5.1682999e-01
   6.0801407e-01
   6.4516576e-01
   6.0839522e-01
   5.1647226e-01
   3.8560115e-01
   2.8914281e-01
   1.6884857e-01
   9.1611176e-02
   1.6165338e-02
   7.1152934e-02
   1.0582835e-01
   9.7349469e-02
   7.5785691e-02
   1.8539674e-02
  -7.2123243e-02
  -1.1873948e-01
  -1.4358795e-01
  -1.6346542e-01
  -1.5020458e-01
  -9.2882964e-02
  -4.1665940e-02
  -4.7437560e-02
  -6.1849431e-02
  -9.3319540e-02
  -1.6063833e-01
  -1.5676719e-01
  -1.4599218e-01
  -1.1703640e-01
  -7.0323470e-02
   1.2891630e-02
   5.3313411e-02
   5.6120259e-02
   2.9197802e-02
   1.2349849e-02
  -5.0978750e-02
  -7.6583444e-02
  -7.3396511e-02
  -5.7857627e-02
  -3.9488955e-02
   4.1350829e-02
   6.3924754e-02
   4.8218715e-02
   1.7021749e-02
   1.7615629e-03
  -4.9289335e-02
  -8.3994851e-02
  -8.4716193e-02
  -6.2568635e-02
  -3.4144298e-02
   3.6153903e-02
   7.7306595e-02
   6.5360729e-02
   4.0802147e-02
   1.2306418e-02
  -6.0462011e-02
  -8.6898188e-02
  -8.1060718e-02
  -6.4643238e-02
  -3.1366455e-02
   2.5051190e-02
   5.0049294e-02
   5.7269408e-02
   2.3505121e-02
  -3.3876898e-03
  -6.3341081e-02
  -8.9213232e-02
  -7.2935414e-02
  -5.8721684e-02
  -3.0642961e-02
   2.3191648e-02
   5.4058356e-02
   6.1355876e-02
   2.9873177e-02
  -5.9901993e-03
  -6.8091328e-02
  -8.0160166e-02
  -7.3939205e-02
  -5.3253234e-02
  -2.0136905e-02
   5.8240756e-02
   8.1511725e-02
   7.4005539e-02
   4.7378602e-02
   1.6053452e-02
  -4.8242417e-02
  -6.9074041e-02
  -4.5849866e-02
  -2.6658680e-02
   9.9143773e-03
   7.6359754e-02
   1.0702323e-01
   9.6305615e-02
   7.1093785e-02
   3.8427481e-02
  -1.0216071e-02
  -4.1736078e-02
  -3.4212207e-02
  -4.1361064e-03
   2.6251715e-02
   9.4512264e-02
   1.2253528e-01
   1.1044117e-01
   9.9745726e-02
   6.5615653e-02
   9.2741636e-03
  -1.7781583e-02
  -1.0961337e-02
   1.3723387e-02
   4.6591623e-02
   1.2881627e-01
   1.5804221e-01
   1.5988824e-01
   1.5019297e-01
   1.1625916e-01
   4.8642079e-02
   2.9467420e-02
   3.2906570e-02
   5.7522819e-02
   8.6023947e-02
   1.6485350e-01
   1.9624684e-01
   1.9413970e-01
   1.7233992e-01
   1.3882312e-01
   8.0210001e-02
   4.5790798e-02
   4.7855987e-02
   6.9079696e-02
   9.5169546e-02
   1.6865344e-01
   1.9266830e-01
   1.8454841e-01
   1.6062862e-01
   1.2063801e-01
   5.5638299e-02
   3.0346579e-02
   4.1016866e-02
   5.6667245e-02
   7.8306919e-02
   1.4680444e-01
   1.6867020e-01
   1.5905188e-01
   1.1875911e-01
   9.8528217e-02
   3.3648246e-02
  -5.0542733e-03
  -3.9170400e-04
   2.5993986e-03
   3.0031075e-02
   1.0919279e-01
   1.3882037e-01
   1.2124781e-01
   8.3920673e-02
   5.2255813e-02
  -1.7046571e-02
  -6.0668710e-02
  -5.3636295e-02
  -3.0802466e-02
  -6.2742695e-03
   4.7891694e-02
   7.5889301e-02
   7.1385733e-02
   4.7002464e-02
   1.8780899e-02
  -6.0066340e-02
  -8.8569407e-02
  -8.0783876e-02
  -6.2418175e-02
  -3.6228557e-02
   3.0620992e-02
   6.8594550e-02
   4.9147385e-02
   2.2555092e-02
   3.5570100e-05
  -7.0071215e-02
  -1.0864347e-01
  -1.1549422e-01
  -9.0458884e-02
  -5.8596450e-02
   2.1371207e-02
   3.8707522e-02
   3.8218870e-02
   2.0209891e-02
  -1.5086759e-02
  -8.3797393e-02
  -1.1768980e-01
  -1.0217694e-01
  -8.3124742e-02
  -4.7461038e-02
   2.2069952e-02
   5.9921815e-02
   5.0588172e-02
   1.5211956e-02
  -2.9727742e-03
  -6.8346152e-02
  -1.0181662e-01
  -9.5776884e-02
  -7.5300800e-02
  -4.1543579e-02
   2.2104253e-02
   5.3171160e-02
   4.3573213e-02
   1.2845421e-02
  -1.7670349e-02
  -7.4273198e-02
  -9.9067206e-02
  -9.4261724e-02
  -7.2688028e-02
  -3.4647661e-02
   3.9488536e-02
   6.6710817e-02
   5.8089298e-02
   3.3653579e-02
  -5.3243147e-03
  -7.2992462e-02
  -1.0408679e-01
  -9.3912055e-02
  -7.1137123e-02
  -3.1432819e-02
   3.5796431e-02
   5.8823805e-02
   5.9790809e-02
   1.8745838e-02
   1.2259663e-03
  -7.5749174e-02
  -1.1613036e-01
  -9.2552558e-02
  -9.4976178e-02
  -6.1178056e-02
   7.8504094e-03
   2.7210819e-02
   2.5022634e-02
   1.2017099e-03
  -3.0582854e-02
  -1.0400866e-01
  -1.3375757e-01
  -1.1065470e-01
  -9.9708596e-02
  -6.7193116e-02
   1.5552501e-02
   3.7803235e-02
   3.3617088e-02
  -6.4037016e-04
  -3.4497379e-02
  -9.4897967e-02
  -1.1819686e-01
  -1.1788231e-01
  -9.5380530e-02
  -6.1955328e-02
   6.2875815e-03
   3.6113464e-02
   2.5030982e-02
  -5.0780877e-04
  -3.3959005e-02
  -1.0948786e-01
  -1.3970312e-01
  -1.2113594e-01
  -1.0379277e-01
  -7.4645664e-02
   1.3938056e-02
   4.0008744e-02
   3.5029366e-02
   5.7994997e-03
  -1.9439859e-02
  -9.2706007e-02
  -1.1791038e-01
  -1.0366910e-01
  -9.6061194e-02
  -6.3069771e-02
   1.0213682e-02
   4.7554342e-02
   4.4959725e-02
   8.1178438e-03
  -1.4098210e-02
  -8.2476617e-02
  -1.0441020e-01
  -1.0164706e-01
  -7.5127994e-02
  -5.2656432e-02
   1.4173774e-02
   4.3172218e-02
   4.2004609e-02
   1.8578047e-02
  -2.2045263e-02
  -9.3934379e-02
  -1.2024671e-01
  -1.1166817e-01
  -8.9663506e-02
  -6.1998095e-02
   1.2727429e-02
   3.8375075e-02
   3.2675899e-02
  -2.2996505e-03
  -2.8442368e-02
  -8.5221953e-02
  -1.1121833e-01
  -1.0043105e-01
  -7.3290715e-02
  -4.7087529e-02
   1.2699358e-02
   3.7905545e-02
   3.9386529e-02
   2.0256259e-02
  -1.4829321e-02
  -7.9569359e-02
  -1.1628592e-01
  -1.1521758e-01
  -7.2122814e-02
  -3.9068985e-02
   1.9722965e-02
   5.7003409e-02
   4.3742081e-02
   1.5697143e-02
  -8.4934191e-03
  -7.5458818e-02
  -1.1032618e-01
  -9.9350728e-02
  -7.5248194e-02
  -5.0627447e-02
   1.3123154e-02
   3.6845777e-02
   3.5945852e-02
   2.1833313e-02
  -6.5686375e-03
  -7.9039166e-02
  -1.0254923e-01
  -9.3802757e-02
  -8.2779729e-02
  -5.1296989e-02
   1.6785871e-02
   4.9236322e-02
   4.1631076e-02
   7.9390785e-03
  -1.4134268e-02
  -5.8932822e-02
  -9.0665241e-02
  -9.9056453e-02
  -7.4877199e-02
  -3.5997436e-02
   2.8425740e-02
   5.8188616e-02
   4.5042548e-02
   1.8547629e-02
  -1.3694613e-02
  -7.2690697e-02
  -8.9685255e-02
  -8.0726289e-02
  -5.9804033e-02
  -2.1689227e-02
   4.2793393e-02
   7.6802327e-02
   7.6172840e-02
   4.8109539e-02
   2.5366040e-02
  -4.4143244e-02
  -7.3350013e-02
  -6.6895726e-02
  -4.2299754e-02
  -6.5059402e-03
   5.3847372e-02
   7.8763508e-02
   8.2535554e-02
   6.7716871e-02
   4.2710147e-02
  -7.6138889e-03
  -2.6114786e-02
  -1.3242782e-02
   1.0114304e-02
   3.9656068e-02
   1.0969890e-01
   1.3749821e-01
   1.3631000e-01
   9.6626393e-02
   6.4657615e-02
  -1.1455613e-03
  -2.6642988e-02
  -3.2645074e-02
  -2.8928619e-02
   7.2563329e-04
   7.6920227e-02
   8.9000165e-02
   8.6587654e-02
   5.1535211e-02
   1.3925161e-02
  -5.6143693e-02
  -9.0878761e-02
  -7.7063864e-02
  -7.1693993e-02
  -4.2608316e-02
   2.6075027e-02
   5.3099727e-02
   4.8662894e-02
   1.0490557e-02
  -1.8389121e-02
  -8.5357590e-02
  -1.1559145e-01
  -1.1160130e-01
  -8.0826560e-02
  -5.1564106e-02
   5.4815920e-03
   4.9526644e-02
   4.2282549e-02
   1.5280083e-02
  -2.0364916e-02
  -8.4601882e-02
  -1.0028266e-01
  -9.6432542e-02
  -8.9588874e-02
  -5.3843560e-02
   1.5477218e-02
   3.9569858e-02
   2.9939427e-02
   1.2770643e-02
  -1.6498060e-02
  -8.9623047e-02
  -1.2185010e-01
  -1.2776702e-01
  -1.1403537e-01
  -7.5188195e-02
   4.0329474e-03
   9.6653255e-02
   1.1687219e-01
   1.3097455e-01
   1.3319871e-01
   1.3437934e-01
   1.6701905e-01
   2.5681364e-01
   3.7576075e-01
   4.9807236e-01
   6.3570809e-01
   7.1670076e-01
   7.1573448e-01
   6.2125907e-01
   5.3864201e-01
   4.1356437e-01
   2.8411173e-01
   1.6873057e-01
   6.1955108e-02
   1.9100882e-03
   3.6435803e-02
   5.1754867e-03
  -6.2285907e-02
  -1.2960270e-01
  -2.0329631e-01
  -2.8506538e-01
  -3.0285443e-01
  -2.7793663e-01
  -2.2620486e-01
  -1.7154942e-01
  -1.0344108e-01
  -6.2574220e-02
  -7.1001866e-02
  -7.5834538e-02
  -9.7885295e-02
  -1.6091154e-01
  -1.7837260e-01
  -1.4367880e-01
  -1.0554499e-01
  -6.0130188e-02
   1.2215257e-02
   3.4350735e-02
   3.3855925e-02
  -3.8561523e-05
  -2.6833454e-02
  -8.0663385e-02
  -1.1618175e-01
  -1.0939893e-01
  -8.8647941e-02
  -5.7524622e-02
   2.0212670e-02
   4.7113886e-02
   3.5186743e-02
   1.4820316e-02
  -1.6863255e-02
  -8.2767393e-02
  -1.1120040e-01
  -8.7813560e-02
  -6.9845162e-02
  -3.9850293e-02
   2.7577383e-02
   5.7906027e-02
   5.2257501e-02
   2.1389189e-02
   7.5157835e-04
  -5.8634851e-02
  -8.2697373e-02
  -7.6486905e-02
  -5.9280613e-02
  -1.0858849e-02
   4.5775463e-02
   7.7226321e-02
   7.3434729e-02
   4.1151781e-02
   1.5899253e-02
  -3.8281937e-02
  -7.2650363e-02
  -5.8295586e-02
  -4.2394543e-02
   2.8804674e-03
   6.5357901e-02
   9.2111946e-02
   9.1717248e-02
   6.5053298e-02
   3.2595073e-02
  -3.7426722e-02
  -6.0492394e-02
  -4.9948565e-02
  -3.2499855e-02
   4.2403538e-03
   7.4656311e-02
   1.0124683e-01
   9.6028685e-02
   6.6971069e-02
   4.7746731e-02
  -1.5993816e-02
  -3.7283935e-02
  -3.8394384e-02
  -1.6545261e-02
   2.5509746e-02
   8.8979530e-02
   1.1974825e-01
   1.2021499e-01
   9.2508713e-02
   6.7380076e-02
   7.4442851e-03
  -2.2243525e-02
  -2.6106310e-02
   3.5464612e-03
   6.4642176e-02
   1.1780575e-01
   1.5422490e-01
   1.4995271e-01
   1.2735572e-01
   9.0992773e-02
   3.2782100e-02
   4.8550182e-03
   1.8614066e-02
   4.4274167e-02
   8.0258749e-02
   1.5185718e-01
   1.7735527e-01
   1.7622599e-01
   1.5243043e-01
   1.1377687e-01
   5.9793323e-02
   4.3653567e-02
   5.3413088e-02
   6.3025165e-02
   1.0114759e-01
   1.6855265e-01
   1.9133297e-01
   1.8597418e-01
   1.5552454e-01
   1.2202391e-01
   6.6052837e-02
   3.7108696e-02
   3.6229675e-02
   5.9692534e-02
   1.0387955e-01
   1.5661206e-01
   1.7709498e-01
   1.8094030e-01
   1.4972484e-01
   1.1625638e-01
   5.4586741e-02
   1.5444615e-02
   1.1944837e-02
   2.5827445e-02
   7.7119681e-02
   1.3010675e-01
   1.4638567e-01
   1.4351091e-01
   1.0625195e-01
   6.7898055e-02
   2.4723806e-03
  -3.7150685e-02
  -4.2810311e-02
  -2.4121902e-02
   1.8881634e-02
   8.3852420e-02
   9.7332597e-02
   8.3130424e-02
   5.5688376e-02
   7.4258349e-03
  -5.4915157e-02
  -7.1367362e-02
  -7.3158439e-02
  -6.2998640e-02
  -1.8901417e-02
   3.8193054e-02
   6.3244920e-02
   5.3123995e-02
   2.4284506e-02
  -1.0914035e-02
  -7.7560439e-02
  -1.0556189e-01
  -9.9146138e-02
  -8.3220996e-02
  -5.0672669e-02
   1.9596821e-02
   4.6682068e-02
   4.7411736e-02
   2.9491160e-02
  -1.4559940e-02
  -7.7024093e-02
  -1.0227818e-01
  -1.0766821e-01
  -9.5733637e-02
  -4.4529734e-02
   9.8096849e-03
   4.7132921e-02
   3.6772884e-02
   1.2171675e-02
  -2.0440691e-02
  -8.3407854e-02
  -1.1910363e-01
  -1.0696899e-01
  -7.9932751e-02
  -3.9609179e-02
   1.8164743e-02
   4.1145388e-02
   3.6494435e-02
   5.7402070e-03
  -3.3262388e-02
  -9.8556427e-02
  -1.2449840e-01
  -1.0787284e-01
  -9.7105077e-02
  -5.1104656e-02
   1.4905186e-02
   4.2563916e-02
   3.0254504e-02
   1.0713120e-02
  -3.1728499e-02
  -9.0690791e-02
  -1.1573978e-01
  -1.0452251e-01
  -8.2017420e-02
  -4.5365175e-02
   1.8599145e-02
   4.3548905e-02
   3.2771259e-02
  -1.0704108e-03
  -2.6975181e-02
  -8.6768852e-02
  -1.0003768e-01
  -1.0563424e-01
  -8.8789251e-02
  -3.7919300e-02
   1.5349887e-02
   2.2848268e-02
   1.8220026e-02
  -2.1785422e-03
  -4.2069253e-02
  -9.4237946e-02
  -1.1939478e-01
  -1.1524115e-01
  -1.0822828e-01
  -6.4757318e-02
   2.5766459e-03
   2.2079938e-02
   1.3978577e-02
  -1.3148312e-02
  -5.2388263e-02
  -1.2087623e-01
  -1.4198151e-01
  -1.3269742e-01
  -1.1339085e-01
  -6.8905845e-02
  -1.2792016e-02
   1.2273261e-02
   3.0248977e-03
  -1.8706100e-02
  -4.1043031e-02
  -1.0214444e-01
  -1.2200785e-01
  -1.1021673e-01
  -8.9756942e-02
  -5.6523922e-02
   1.4972009e-02
   4.5498746e-02
   3.7958332e-02
   1.4087099e-02
  -2.6622345e-02
  -8.4902355e-02
  -1.1913592e-01
  -1.0918120e-01
  -8.5265473e-02
  -3.5143943e-02
   2.2694334e-02
   5.8489644e-02
   4.9236691e-02
   1.9013145e-02
  -1.8938914e-02
  -8.4029066e-02
  -1.0386201e-01
  -9.6316181e-02
  -7.1373290e-02
  -1.5457806e-02
   5.0314280e-02
   6.5869318e-02
   4.6513008e-02
   1.6047142e-02
  -1.9821515e-02
  -7.4229660e-02
  -9.7416070e-02
  -9.5047424e-02
  -7.7257343e-02
  -4.2842540e-02
   2.8015680e-02
   5.1916991e-02
   5.7705406e-02
   3.0234808e-02
  -1.0554952e-02
  -7.6647777e-02
  -8.7835477e-02
  -7.4553014e-02
  -5.7538268e-02
  -1.7578344e-02
   4.6760904e-02
   6.9886565e-02
   6.7688342e-02
   5.0839653e-02
   5.2351437e-03
  -6.5679450e-02
  -9.4599604e-02
  -8.4357105e-02
  -5.7179353e-02
  -1.7898107e-02
   3.6089874e-02
   6.7432400e-02
   6.1221649e-02
   3.3059747e-02
  -6.8449925e-03
  -7.4239192e-02
  -9.0785534e-02
  -8.5654838e-02
  -6.4142501e-02
  -1.9758830e-02
   4.0685886e-02
   6.9622409e-02
   6.7405493e-02
   4.7410611e-02
   2.1252824e-02
  -4.3401969e-02
  -6.6942575e-02
  -5.3515126e-02
  -3.8957647e-02
   7.5145597e-03
   7.4837363e-02
   1.0126357e-01
   1.0472310e-01
   7.8365871e-02
   2.7655749e-02
  -3.4187375e-02
  -4.8660785e-02
  -2.2367641e-02
   6.1830799e-03
   5.5797809e-02
   1.1554989e-01
   1.4175173e-01
   1.2724959e-01
   1.0057442e-01
   6.2728485e-02
  -8.7877305e-03
  -3.7527403e-02
  -3.7001912e-02
  -2.4388652e-02
   2.7928425e-02
   8.4090058e-02
   9.9940329e-02
   8.8874570e-02
   5.4736721e-02
   1.2114457e-02
  -5.0172943e-02
  -6.8770773e-02
  -6.7970876e-02
  -5.6202371e-02
  -2.1489615e-02
   3.6776460e-02
   6.0270557e-02
   5.0305363e-02
   3.3184053e-02
  -1.3061053e-02
  -8.1127727e-02
  -9.2565777e-02
  -9.4219697e-02
  -7.8545700e-02
  -3.4256761e-02
   3.6717224e-02
   5.5496088e-02
   3.7398908e-02
   1.4621983e-02
  -2.9940196e-02
  -8.9236682e-02
  -1.1827855e-01
  -1.1294759e-01
  -9.1101183e-02
  -5.4384311e-02
   9.9372265e-05
   2.6450373e-02
   2.6861256e-02
   1.5391385e-02
  -3.2255751e-02
  -1.0139431e-01
  -1.2173094e-01
  -1.0517754e-01
  -8.7852954e-02
  -4.5968390e-02
   9.3473655e-03
   8.4272029e-03
  -1.2577827e-03
  -2.1586182e-02
  -4.7839511e-02
  -6.3811414e-02
  -5.1594586e-02
  -2.6217909e-03
   5.6170480e-02
   1.5848351e-01
   3.0974632e-01
   4.3301209e-01
   5.3547510e-01
   6.0317585e-01
   6.4706545e-01
   6.7419497e-01
   6.4509331e-01
   5.8786335e-01
   5.6430261e-01
   5.5735777e-01
   5.0202466e-01
   3.7010687e-01
   2.2361972e-01
   6.5537167e-02
  -3.7813306e-02
  -1.7451937e-01
  -2.4985219e-01
  -3.0272166e-01
  -3.3528188e-01
  -3.0208105e-01
  -2.1030577e-01
  -1.5360406e-01
  -1.2191586e-01
  -1.2878145e-01
  -1.5935307e-01
  -2.1583744e-01
  -2.1850884e-01
  -1.8226476e-01
  -1.5742610e-01
  -9.6563867e-02
  -2.3015131e-02
   1.7475152e-02
   3.6459686e-02
   1.4850212e-02
  -3.5315317e-02
  -9.2163045e-02
  -1.0546096e-01
  -1.0243856e-01
  -7.9928494e-02
  -3.5413779e-02
   2.8484735e-02
   4.8784232e-02
   6.2946654e-02
   3.1343780e-02
  -1.6727556e-02
  -6.0851155e-02
  -8.5852466e-02
  -7.2019786e-02
  -5.8553991e-02
  -1.2375222e-02
   5.6498723e-02
   8.3801863e-02
   7.8989892e-02
   4.5289153e-02
   1.3188360e-02
  -5.2837779e-02
  -6.8413670e-02
  -6.1387786e-02
  -3.8652975e-02
   3.9616284e-03
   7.2740812e-02
   9.9018648e-02
   8.3830485e-02
   6.0145582e-02
   2.2198306e-02
  -3.8456640e-02
  -5.5663608e-02
  -5.2676716e-02
  -3.1942607e-02
   2.2616334e-02
   7.7298365e-02
   1.0626004e-01
   9.5602485e-02
   6.8591219e-02
   3.9268243e-02
  -1.5596124e-02
  -4.2383346e-02
  -3.0774769e-02
  -1.7538703e-02
   2.8616412e-02
   9.3924735e-02
   1.2566157e-01
   1.2891428e-01
   1.0078338e-01
   5.1882253e-02
  -1.1431854e-02
  -2.3078928e-02
  -1.2633284e-02
   2.0952861e-02
   6.8479912e-02
   1.2524134e-01
   1.4928370e-01
   1.4551024e-01
   1.2128410e-01
   8.3742446e-02
   2.7826543e-02
   1.1077855e-02
   1.1612709e-02
   3.5139732e-02
   8.3393911e-02
   1.4320794e-01
   1.7431941e-01
   1.6858662e-01
   1.4431790e-01
   1.0080451e-01
   5.1291542e-02
   3.2008250e-02
   4.1903113e-02
   6.8096940e-02
   1.1999048e-01
   1.9270310e-01
   2.1274567e-01
   2.1242534e-01
   1.8592179e-01
   1.4711405e-01
   9.3465819e-02
   7.3312304e-02
   8.6176083e-02
   1.0815066e-01
   1.5767066e-01
   2.1835467e-01
   2.4182366e-01
   2.3660647e-01
   2.1289634e-01
   1.6527814e-01
   1.0358321e-01
   8.1903047e-02
   9.3114630e-02
   1.3123108e-01
   1.6454748e-01
   2.2831818e-01
   2.4642724e-01
   2.3830309e-01
   2.1495274e-01
   1.6463218e-01
   1.0017915e-01
   8.4029677e-02
   9.0781027e-02
   1.1465184e-01
   1.5325043e-01
   1.9840181e-01
   2.2513773e-01
   2.0769846e-01
   1.7734702e-01
   1.3597151e-01
   6.0396170e-02
   3.4297938e-02
   3.7384564e-02
   4.7330965e-02
   8.3818311e-02
   1.3935624e-01
   1.5340114e-01
   1.3351598e-01
   1.0884794e-01
   7.0939359e-02
  -9.1444027e-03
  -4.0036994e-02
  -3.4130518e-02
  -1.8810633e-02
   1.9881957e-02
   8.0631331e-02
   1.0286343e-01
   9.4666509e-02
   5.9309423e-02
   1.1384147e-02
  -5.1548517e-02
  -7.4130892e-02
  -6.6194793e-02
  -4.8555636e-02
  -2.0952114e-03
   6.2220736e-02
   8.6739312e-02
   7.2433998e-02
   3.2409734e-02
  -1.3129502e-02
  -6.0105402e-02
  -7.8579667e-02
  -7.2504366e-02
  -6.1594668e-02
  -1.6979819e-02
   5.5960765e-02
   9.2652743e-02
   7.0568870e-02
   4.4463395e-02
  -2.6767985e-03
  -5.3544928e-02
  -7.7520154e-02
  -7.6980490e-02
  -5.2218917e-02
  -5.2187686e-03
   6.4680232e-02
   8.7118785e-02
   7.6771647e-02
   5.2097133e-02
   2.6175996e-03
  -5.8135730e-02
  -8.1811908e-02
  -7.2831018e-02
  -5.0817182e-02
  -1.9613331e-03
   6.0796753e-02
   8.6248032e-02
   7.2435123e-02
   5.0388519e-02
  -4.6524865e-04
  -6.2972153e-02
  -7.4086921e-02
  -7.5627312e-02
  -5.0004816e-02
  -4.4854943e-03
   5.7766799e-02
   8.4853597e-02
   6.7653284e-02
   3.5760283e-02
   6.4246311e-03
  -4.4796992e-02
  -7.3274188e-02
  -6.6019727e-02
  -5.2793412e-02
  -1.6249996e-02
   6.2160390e-02
   9.1103224e-02
   7.3830757e-02
   3.9656701e-02
  -3.7977795e-03
  -5.8828415e-02
  -7.5509371e-02
  -7.2219111e-02
  -5.1927084e-02
   4.0567810e-03
   5.6542510e-02
   8.6306631e-02
   7.1232583e-02
   4.0376138e-02
  -4.4419115e-03
  -5.3477404e-02
  -7.1312389e-02
  -6.5925252e-02
  -4.7238518e-02
   2.5933536e-03
   7.0635376e-02
   8.8207098e-02
   6.9965731e-02
   4.9069415e-02
   9.4769677e-03
  -5.9334806e-02
  -7.1966776e-02
  -6.2827984e-02
  -4.0987939e-02
   6.0003234e-03
   5.9517812e-02
   7.7251733e-02
   7.0009611e-02
   5.0916920e-02
   1.9456193e-04
  -6.3785801e-02
  -7.8999171e-02
  -7.3134786e-02
  -5.3229044e-02
  -1.5986556e-03
   5.1929074e-02
   8.3859598e-02
   6.6525077e-02
   4.0329865e-02
  -6.2796753e-03
  -5.8022009e-02
  -7.6350575e-02
  -7.6797632e-02
  -5.4052974e-02
  -6.3920878e-03
   6.5832326e-02
   8.4441656e-02
   7.9472970e-02
   6.1102920e-02
   3.6837298e-03
  -5.9030533e-02
  -8.4372581e-02
  -7.7227311e-02
  -5.9433098e-02
  -1.4191516e-03
   4.5861663e-02
   6.2226077e-02
   6.1331600e-02
   3.4539999e-02
  -6.4391991e-03
  -7.1254208e-02
  -9.2917899e-02
  -8.5040927e-02
  -6.6084741e-02
  -1.4670334e-02
   4.1976881e-02
   6.1656111e-02
   5.2688576e-02
   3.4407628e-02
  -1.0523380e-02
  -6.8881873e-02
  -9.7637483e-02
  -7.1201224e-02
  -5.5356251e-02
  -1.1143313e-02
   4.6257733e-02
   6.3457188e-02
   6.0612475e-02
   3.3425665e-02
  -8.1330669e-03
  -7.4626792e-02
  -8.4839990e-02
  -8.2740671e-02
  -5.7596614e-02
   4.7427499e-03
   5.2328871e-02
   1.0231502e-01
   7.4663748e-02
   1.2206422e-02
  -3.1337327e-02
  -7.3276651e-02
  -7.7521174e-02
  -7.5557496e-02
  -5.9592352e-02
  -1.0682783e-03
   5.7341498e-02
   8.0319683e-02
   8.1518997e-02
   5.6028597e-02
   1.1080627e-02
  -4.5647888e-02
  -5.7613475e-02
  -4.4533036e-02
  -2.3305737e-02
   3.6134914e-02
   9.3967918e-02
   1.1548761e-01
   1.0700158e-01
   8.1206382e-02
   2.1962181e-02
  -2.5345979e-02
  -5.5241628e-02
  -2.5015140e-02
   1.0128686e-02
   7.0285424e-02
   1.3041144e-01
   1.5129391e-01
   1.3760000e-01
   1.1503327e-01
   9.1579960e-02
  -4.5999464e-03
  -3.1991954e-02
  -1.2065224e-02
   5.0543678e-03
   5.6096856e-02
   1.0101792e-01
   1.0833085e-01
   8.1695527e-02
   5.9283065e-02
   6.7845222e-03
  -5.8005273e-02
  -6.8224643e-02
  -6.7219636e-02
  -5.9056399e-02
  -1.5427430e-02
   5.4243198e-02
   7.4348444e-02
   5.2834885e-02
   1.5480091e-02
  -4.2037360e-02
  -9.8866980e-02
  -1.1066285e-01
  -1.1047191e-01
  -9.7092422e-02
  -3.7196006e-02
   1.8561292e-02
   3.2950243e-02
   1.3887193e-02
   1.2318644e-03
  -4.2045503e-02
  -1.0517444e-01
  -1.2419090e-01
  -1.1310297e-01
  -9.3294933e-02
  -3.8442981e-02
   1.6507359e-02
   3.4963368e-02
   2.6828718e-02
   1.4259633e-03
  -5.5495469e-02
  -1.0570924e-01
  -1.2308157e-01
  -1.2136158e-01
  -9.7452362e-02
  -4.9418303e-02
   5.2659571e-04
   7.4603701e-03
  -1.1366323e-02
  -4.1031126e-02
  -7.8470146e-02
  -1.2147006e-01
  -1.0970446e-01
  -6.8636922e-02
  -8.3778219e-03
   7.8468318e-02
   2.0943060e-01
   3.1575215e-01
   3.9831866e-01
   4.8045164e-01
   5.4271600e-01
   6.0570590e-01
   6.7247636e-01
   7.0040394e-01
   6.5402813e-01
   6.7030916e-01
   6.8377937e-01
   6.0270455e-01
   4.3986676e-01
   2.6122267e-01
   7.5485051e-02
  -7.8815955e-02
  -1.8697760e-01
  -2.4736191e-01
  -2.8960594e-01
  -2.8548453e-01
  -2.2759364e-01
  -1.7763723e-01
  -1.4307376e-01
  -1.3160076e-01
  -1.6714326e-01
  -2.1918055e-01
  -2.1776601e-01
  -1.8643023e-01
  -1.4770317e-01
  -8.2943789e-02
  -9.0802335e-03
   2.1984051e-02
   2.0543403e-02
   5.4937632e-03
  -3.8337126e-02
  -9.7365784e-02
  -1.1973724e-01
  -1.0023085e-01
  -8.9573149e-02
  -2.9471303e-02
   2.1592699e-02
   3.7097096e-02
   2.9410068e-02
   9.0423681e-03
  -3.8068894e-02
  -9.7632228e-02
  -1.1174978e-01
  -1.0045822e-01
  -8.7042067e-02
  -1.5204487e-02
   4.5661584e-02
   6.7944790e-02
   5.5777256e-02
   2.7744704e-02
  -2.2025941e-02
  -7.9041233e-02
  -8.8676575e-02
  -7.5097875e-02
  -6.1247829e-02
  -7.0419073e-03
   4.8974839e-02
   6.9423684e-02
   6.2664945e-02
   4.0023339e-02
  -7.3871637e-03
  -6.5101554e-02
  -7.5892055e-02
  -5.9027489e-02
  -4.6223632e-02
   1.2777223e-02
   7.7551266e-02
   8.6922393e-02
   7.4475083e-02
   5.1613988e-02
   6.0990669e-03
  -4.0129865e-02
  -6.0349253e-02
  -4.6441900e-02
  -3.0420388e-02
   3.9471546e-02
   8.9607291e-02
   1.1195222e-01
   1.0342286e-01
   7.2347817e-02
   3.5464159e-02
  -1.2333827e-02
  -2.8310620e-02
  -2.1047064e-02
   2.4388976e-03
   5.9498082e-02
   1.1773813e-01
   1.3306732e-01
   1.1590414e-01
   9.7571648e-02
   7.5151929e-02
   2.3645452e-02
   8.9724421e-04
   1.1794633e-02
   3.3222238e-02
   9.2644952e-02
   1.5351431e-01
   1.7365812e-01
   1.6529170e-01
   1.4360886e-01
   9.5216489e-02
   3.7766822e-02
   4.7618400e-02
   6.2812313e-02
   8.0963718e-02
   1.4825344e-01
   2.0578632e-01
   2.3787095e-01
   2.2944565e-01
   2.1034974e-01
   1.6430731e-01
   1.0917368e-01
   1.0323618e-01
   1.1144988e-01
   1.3398461e-01
   1.9359557e-01
   2.5190931e-01
   2.7785849e-01
   2.7370233e-01
   2.4352877e-01
   1.8471994e-01
   1.2924476e-01
   1.1352996e-01
   1.2116091e-01
   1.5020528e-01
   1.9711194e-01
   2.5023272e-01
   2.6472218e-01
   2.5891103e-01
   2.3205765e-01
   1.7755766e-01
   1.2567262e-01
   1.0853421e-01
   1.1294858e-01
   1.2200289e-01
   1.6771398e-01
   2.3000712e-01
   2.5335335e-01
   2.3572977e-01
   2.0180788e-01
   1.3864587e-01
   7.6487220e-02
   5.3938923e-02
   5.7010972e-02
   6.6935480e-02
   1.1917514e-01
   1.6889500e-01
   1.7368966e-01
   1.6140970e-01
   1.2558307e-01
   6.9016038e-02
   1.3437467e-03
  -1.9448787e-02
  -8.5420893e-03
  -6.6141889e-03
   4.9198009e-02
   1.0990082e-01
   1.2749590e-01
   9.8636260e-02
   6.1037722e-02
   1.4495253e-02
  -4.5370741e-02
  -4.2319280e-02
  -4.1759877e-02
  -2.8179371e-02
   2.6546297e-02
   8.2711257e-02
   1.0023468e-01
   8.7927721e-02
   5.6065444e-02
  -1.3271206e-03
  -5.6609604e-02
  -6.7026066e-02
  -5.7475691e-02
  -4.2652874e-02
   4.5298930e-03
   5.9432320e-02
   7.5898362e-02
   8.1320247e-02
   5.4622308e-02
  -1.9979811e-03
  -5.3207015e-02
  -6.7831164e-02
  -6.5250892e-02
  -5.1173495e-02
  -9.0340994e-04
   6.5077917e-02
   9.5092732e-02
   7.9624246e-02
   4.9642218e-02
   2.5004820e-04
  -6.7053652e-02
  -6.6748912e-02
  -5.5228320e-02
  -4.1259392e-02
   1.8420971e-02
   7.3288468e-02
   9.1119346e-02
   7.7212933e-02
   5.5767223e-02
   4.8663964e-03
  -5.5349630e-02
  -6.8994603e-02
  -4.9224678e-02
  -3.2733945e-02
   2.0127247e-02
   8.3895277e-02
   9.3680424e-02
   7.2729877e-02
   5.6620553e-02
   8.2606765e-03
  -5.2423398e-02
  -5.9783506e-02
  -5.4951981e-02
  -3.2888459e-02
   1.9255102e-02
   8.1864157e-02
   1.0023337e-01
   8.1366462e-02
   7.2922529e-02
   2.2811804e-02
  -4.2163203e-02
  -6.2706480e-02
  -2.7585753e-02
  -1.3392321e-02
   3.3264003e-02
   9.0657551e-02
   1.0630931e-01
   9.6045992e-02
   7.2596628e-02
   2.2536480e-02
  -2.8379659e-02
  -4.3228612e-02
  -3.6796241e-02
  -1.7913930e-02
   4.0009806e-02
   9.9038572e-02
   1.1849463e-01
   1.0749671e-01
   8.6717319e-02
   3.7171124e-02
  -3.0061884e-02
  -4.4631858e-02
  -2.0047991e-02
  -1.0702637e-02
   4.8389143e-02
   1.1057158e-01
   1.0959371e-01
   1.0392761e-01
   7.8760255e-02
   3.3236108e-02
  -2.7123574e-02
  -3.9693006e-02
  -2.7831062e-02
  -1.1564859e-02
   3.6319053e-02
   9.6703398e-02
   1.1214773e-01
   1.0150828e-01
   7.4564401e-02
   2.3542555e-02
  -4.1344753e-02
  -4.6667101e-02
  -2.5926810e-02
  -1.0216440e-02
   2.8806193e-02
   1.0151985e-01
   1.1923267e-01
   9.7055242e-02
   7.9548441e-02
   2.2791965e-02
  -3.1464951e-02
  -5.1549686e-02
  -3.7249393e-02
  -1.3495980e-02
   4.0611367e-02
   9.6948491e-02
   1.0398206e-01
   8.8020742e-02
   7.1838816e-02
   2.4214296e-02
  -4.0169456e-02
  -4.5910515e-02
  -3.2692920e-02
  -1.3331263e-02
   3.6185884e-02
   9.2840841e-02
   9.8803562e-02
   9.7217178e-02
   7.3926417e-02
   2.2728680e-02
  -4.0544248e-02
  -5.3828804e-02
  -3.9129073e-02
  -1.7555507e-02
   3.0519298e-02
   8.0557474e-02
   9.7962646e-02
   8.5156448e-02
   5.5134894e-02
   5.5999336e-03
  -4.7979812e-02
  -5.6455994e-02
  -4.7615090e-02
  -2.6629315e-02
   1.9114917e-02
   6.9808167e-02
   9.3752605e-02
   9.2673799e-02
   5.8401549e-02
   6.0473898e-03
  -4.6343978e-02
  -6.1979301e-02
  -4.4291449e-02
  -2.8928176e-02
   2.2081775e-02
   8.2270677e-02
   9.9045474e-02
   7.3004663e-02
   5.0147362e-02
   6.2215626e-03
  -4.2622570e-02
  -5.1084030e-02
  -2.7228479e-02
   3.8355788e-03
   4.5586766e-02
   9.7270164e-02
   1.1853230e-01
   1.0557642e-01
   8.6319603e-02
   4.0442634e-02
  -2.3946008e-02
  -3.3691796e-02
  -1.3915124e-02
   2.8150304e-03
   7.1367118e-02
   1.4720107e-01
   1.6859831e-01
   1.5709978e-01
   1.3998498e-01
   1.0113623e-01
   3.1181178e-02
   2.1057565e-02
   3.7319934e-02
   6.7327080e-02
   1.1040903e-01
   1.6248018e-01
   1.6927570e-01
   1.6552322e-01
   1.3405279e-01
   7.0308673e-02
   9.1850127e-03
  -3.2503817e-03
   4.3451319e-03
   1.8499031e-02
   7.5059828e-02
   1.3287416e-01
   1.3928807e-01
   1.1212889e-01
   8.5225933e-02
   2.9000472e-02
  -3.4741463e-02
  -4.9944819e-02
  -3.4967091e-02
  -2.8228037e-02
   2.6829715e-02
   7.7393539e-02
   9.4858374e-02
   8.2239021e-02
   5.4044911e-02
  -9.2928677e-04
  -5.8153922e-02
  -5.8530731e-02
  -3.6221347e-02
  -2.2796163e-02
   3.4419018e-02
   8.8448830e-02
   9.9513664e-02
   7.8911417e-02
   6.1896967e-02
   9.0755589e-03
  -4.5812327e-02
  -5.4775679e-02
  -4.0568036e-02
  -3.0738941e-02
   9.5687712e-03
   8.9864404e-02
   1.0042862e-01
   7.4918889e-02
   4.0607052e-02
  -7.8940848e-03
  -6.9334871e-02
  -7.1366730e-02
  -4.7782766e-02
  -2.7485068e-02
   6.7395047e-02
   1.6267981e-01
   2.1518059e-01
   2.3721877e-01
   2.9423173e-01
   3.3606746e-01
   3.9850166e-01
   4.8716383e-01
   6.0409464e-01
   7.2911924e-01
   8.4517042e-01
   8.7338929e-01
   8.2993507e-01
   7.8199561e-01
   6.9491862e-01
   5.1498524e-01
   3.1818765e-01
   1.4641650e-01
   1.9039740e-02
  -5.0722235e-02
  -7.5044736e-02
  -8.6229141e-02
  -1.4616232e-01
  -1.9159826e-01
  -1.9825164e-01
  -2.1495121e-01
  -2.3090039e-01
  -2.1711181e-01
  -1.7631086e-01
  -1.5335181e-01
  -8.6032513e-02
  -5.7409141e-03
   3.2525143e-02
   3.6720696e-02
   2.2825393e-02
  -1.3978259e-02
  -6.7348289e-02
  -8.0072001e-02
  -6.5505306e-02
  -4.4173077e-02
   1.0697500e-02
   6.8352713e-02
   9.2535562e-02
   6.7831329e-02
   5.3289178e-02
   2.2020269e-03
  -5.4685791e-02
  -5.2264435e-02
  -3.6732729e-02
  -2.3527367e-02
   3.0655585e-02
   8.6791367e-02
   1.0580654e-01
   8.3450250e-02
   6.3414180e-02
   1.4516657e-02
  -3.4658992e-02
  -4.2790976e-02
  -2.4657559e-02
  -3.4684599e-03
   3.9977898e-02
   1.0111369e-01
   1.1391584e-01
   1.0178430e-01
   8.5311132e-02
   2.1743276e-02
  -3.1371188e-02
  -4.5787992e-02
  -1.9225592e-02
  -3.1726493e-03
   4.8668810e-02
   1.0791212e-01
   1.2293995e-01
   1.0150471e-01
   7.4667402e-02
   4.4317884e-02
  -6.2361793e-03
  -3.0912016e-02
  -4.8915994e-03
   2.1309666e-02
   7.1757129e-02
   1.3377171e-01
   1.4561039e-01
   1.2200152e-01
   1.0618472e-01
   5.7874913e-02
  -9.6321234e-04
   3.2305679e-03
   1.3200405e-02
   4.1985125e-02
   1.0290133e-01
   1.5769883e-01
   1.6490755e-01
   1.5742527e-01
   1.3581906e-01
   8.4401228e-02
   2.4899162e-02
   1.0586878e-02
   3.8806676e-02
   5.0280934e-02
   1.1016720e-01
   1.7174161e-01
   1.8972734e-01
   1.7612546e-01
   1.3764327e-01
   1.0217823e-01
   5.6387188e-02
   4.5149627e-02
   6.2325545e-02
   7.9662435e-02
   1.4388427e-01
   2.0212313e-01
   2.1996494e-01
   2.0268733e-01
   1.7517863e-01
   1.2776000e-01
   9.4354206e-02
   8.5002851e-02
   1.0390434e-01
   1.2324843e-01
   1.8481238e-01
   2.4495313e-01
   2.5610040e-01
   2.3837114e-01
   2.1280781e-01
   1.7519590e-01
   1.2388354e-01
   1.1112279e-01
   1.2667742e-01
   1.5171359e-01
   2.0998567e-01
   2.6882851e-01
   2.8597558e-01
   2.5834787e-01
   2.4280610e-01
   1.9580433e-01
   1.3803217e-01
   1.1776883e-01
   1.2215093e-01
   1.4328920e-01
   1.9988324e-01
   2.5497330e-01
   2.7559620e-01
   2.3676481e-01
   2.0994035e-01
   1.5624489e-01
   9.0299688e-02
   8.2147335e-02
   8.9107127e-02
   9.7305504e-02
   1.4218329e-01
   1.9464661e-01
   2.0165119e-01
   1.8232244e-01
   1.5608475e-01
   9.1445227e-02
   3.2998137e-02
   8.8891492e-03
   1.3391765e-02
   4.0297471e-02
   7.4438559e-02
   1.2395269e-01
   1.3345503e-01
   1.1033121e-01
   8.1140833e-02
   3.0001881e-02
  -2.9280364e-02
  -4.8747877e-02
  -2.8953671e-02
  -1.4374713e-02
   3.9339097e-02
   9.8047413e-02
   1.0216603e-01
   7.9624412e-02
   5.3956897e-02
   5.6661755e-03
  -6.0082060e-02
  -6.8663047e-02
  -5.2484022e-02
  -4.0387274e-02
   1.4400239e-02
   6.5449266e-02
   7.0759063e-02
   5.7249880e-02
   3.7661966e-02
  -4.4250159e-03
  -6.8428188e-02
  -7.6199124e-02
  -5.5332063e-02
  -3.3345956e-02
   1.4327374e-02
   7.7234182e-02
   9.2501206e-02
   7.0428062e-02
   5.1518716e-02
  -1.7709959e-03
  -5.9348397e-02
  -6.5742528e-02
  -5.2210284e-02
  -3.4036366e-02
   1.7705049e-02
   6.4631155e-02
   7.3668271e-02
   4.7401386e-02
   3.8611883e-02
   1.4519392e-03
  -6.3504093e-02
  -7.3369297e-02
  -5.1285191e-02
  -2.7297337e-02
   2.9265151e-02
   8.5719067e-02
   9.0221659e-02
   5.8315421e-02
   4.1209876e-02
  -6.2788827e-03
  -6.0099410e-02
  -7.5480115e-02
  -5.2226295e-02
  -3.4192802e-02
   3.0272340e-02
   8.7725412e-02
   9.0492171e-02
   7.4347901e-02
   5.2365927e-02
   1.3039103e-02
  -5.8848195e-02
  -6.6490608e-02
  -4.5205899e-02
  -3.3857289e-02
   2.7466242e-02
   7.3419599e-02
   8.7227790e-02
   6.6901521e-02
   4.2727119e-02
  -1.5799979e-02
  -7.1511752e-02
  -8.6990106e-02
  -5.0928422e-02
  -2.5750438e-02
   2.1488340e-02
   7.4942804e-02
   9.1365858e-02
   6.5690309e-02
   3.8881468e-02
  -3.4527219e-03
  -6.3175465e-02
  -7.9338786e-02
  -6.5818674e-02
  -4.7162005e-02
   4.3192516e-03
   6.0271389e-02
   8.0498963e-02
   5.5419984e-02
   3.1979501e-02
  -2.9214710e-02
  -7.7723687e-02
  -8.9091334e-02
  -7.4433800e-02
  -5.7276051e-02
  -2.1972713e-03
   5.0389254e-02
   6.5546134e-02
   4.2659273e-02
   1.8098862e-02
  -3.7221470e-02
  -9.1218565e-02
  -9.5142638e-02
  -7.6440414e-02
  -6.2857848e-02
  -1.4300613e-02
   5.2972912e-02
   6.5281815e-02
   3.6777011e-02
   1.5306879e-02
  -2.9120098e-02
  -8.7953370e-02
  -9.5501352e-02
  -8.6690956e-02
  -7.4166048e-02
  -1.1202967e-02
   5.8609193e-02
   7.2341668e-02
   4.6004735e-02
   1.6079107e-02
  -3.2783496e-02
  -8.6507191e-02
  -8.7891947e-02
  -6.8397278e-02
  -5.8274989e-02
   4.4118235e-04
   6.7282171e-02
   7.1465324e-02
   4.8365994e-02
   1.7848775e-02
  -3.8064185e-02
  -8.8322794e-02
  -1.0521739e-01
  -8.0627726e-02
  -5.8650451e-02
  -3.7598489e-03
   5.7057817e-02
   6.9235044e-02
   5.0790791e-02
   1.9548710e-02
  -2.3944966e-02
  -7.8210112e-02
  -9.4523854e-02
  -7.3896162e-02
  -4.9675983e-02
  -1.0461953e-03
   5.4561305e-02
   6.3512278e-02
   4.9111275e-02
   2.1559206e-02
  -3.7528837e-02
  -9.2069232e-02
  -1.0103052e-01
  -7.2583301e-02
  -5.1005126e-02
  -1.4286909e-02
   4.3420527e-02
   4.8855058e-02
   3.1541343e-02
   1.1762697e-02
  -4.7449398e-02
  -1.0391676e-01
  -1.1625462e-01
  -9.3328723e-02
  -7.4225896e-02
  -2.4457596e-02
   2.6400331e-02
   2.9687031e-02
   3.5219248e-03
  -7.4846856e-03
  -5.5703820e-02
  -1.1806402e-01
  -1.2857048e-01
  -1.0998423e-01
  -8.5386236e-02
  -3.4348112e-02
   2.4367573e-02
   3.4644236e-02
   2.4441745e-03
  -5.6754058e-03
  -4.9335887e-02
  -1.1752879e-01
  -1.1640991e-01
  -9.2908865e-02
  -7.7679091e-02
  -1.8113707e-02
   4.0418966e-02
   5.7120304e-02
   3.5168840e-02
   1.4705306e-02
  -2.9047816e-02
  -8.2323736e-02
  -8.8514642e-02
  -7.0867124e-02
  -4.6579292e-02
  -7.6256842e-03
   4.8905510e-02
   6.4519041e-02
   5.7168564e-02
   5.3393526e-02
   8.1309349e-03
  -4.5005960e-02
  -5.1873608e-02
  -2.1549527e-02
  -4.5445993e-03
   3.8316219e-02
   9.8691587e-02
   1.1750608e-01
   7.7159327e-02
   5.0948405e-02
   6.6979487e-04
  -6.6758110e-02
  -8.6095140e-02
  -6.8410690e-02
  -5.2230113e-02
   2.0987896e-03
   5.1354099e-02
   5.9031133e-02
   3.5985009e-02
   8.4793270e-03
  -4.7923047e-02
  -1.0875820e-01
  -1.1434166e-01
  -9.6152896e-02
  -8.9442040e-02
  -4.5098486e-02
   7.7398766e-03
   1.8535032e-02
   3.0935491e-04
  -1.8456619e-02
  -7.3737270e-02
  -1.3420517e-01
  -1.3897523e-01
  -1.2565575e-01
  -1.0651645e-01
  -5.2935669e-02
   3.3892800e-03
   2.1252115e-02
  -5.9497071e-03
  -2.9697702e-02
  -5.9576148e-02
  -1.2381896e-01
  -1.3404989e-01
  -1.1627444e-01
  -1.0122938e-01
  -3.8657070e-02
   1.7347237e-02
   3.1148087e-02
   1.0204243e-02
  -1.6553407e-02
  -7.2160061e-02
  -1.2295887e-01
  -1.4531823e-01
  -1.2347068e-01
  -1.1809821e-01
  -5.4662539e-02
   1.3530585e-02
   5.6311649e-02
   7.0351627e-02
   8.2771065e-02
   6.4662894e-02
   8.6618653e-02
   1.6370831e-01
   2.8413773e-01
   4.1398594e-01
   5.6361728e-01
   7.3362743e-01
   8.3271957e-01
   8.4519133e-01
   7.7800526e-01
   6.7967446e-01
   5.7805850e-01
   4.7353198e-01
   3.5769603e-01
   2.2988830e-01
   1.3516578e-01
   7.0804722e-02
  -4.8872940e-04
  -1.0514437e-01
  -1.8675448e-01
  -3.1281819e-01
  -3.8307326e-01
  -3.5717755e-01
  -3.1615769e-01
  -2.6971739e-01
  -1.6420817e-01
  -1.0494752e-01
  -8.9017145e-02
  -8.6010581e-02
  -8.6137338e-02
  -1.1822494e-01
  -1.5549884e-01
  -1.4746314e-01
  -1.2822173e-01
  -1.0679970e-01
  -4.6956042e-02
   1.8370610e-02
   2.5505042e-02
   4.0290617e-03
  -1.7637607e-02
  -6.3254577e-02
  -1.1834129e-01
  -1.2552207e-01
  -1.0274770e-01
  -8.7976168e-02
  -2.9536114e-02
   1.7591156e-02
   3.4026544e-02
   1.5400211e-02
  -1.6793925e-03
  -5.5021163e-02
  -1.1468288e-01
  -1.0351887e-01
  -8.1821973e-02
  -6.7261776e-02
  -7.6192482e-03
   4.3158979e-02
   4.4065756e-02
   1.4979406e-02
  -8.5895698e-03
  -5.8002088e-02
  -1.1464855e-01
  -1.3214993e-01
  -1.0127852e-01
  -9.5103920e-02
  -2.4939543e-02
   3.8927607e-02
   4.4320543e-02
   2.6856759e-02
   2.2222430e-04
  -4.0210541e-02
  -9.5877960e-02
  -1.0440911e-01
  -9.0225971e-02
  -7.0843739e-02
  -1.1151531e-02
   5.0755335e-02
   6.3569876e-02
   4.3970774e-02
   1.8040443e-02
  -4.4026851e-02
  -9.1613642e-02
  -8.8734634e-02
  -6.0548154e-02
  -4.4898053e-02
   1.3653343e-02
   8.0510457e-02
   8.4350009e-02
   6.3180155e-02
   2.9028615e-02
  -1.2708923e-02
  -5.2379465e-02
  -5.2323184e-02
  -2.1689990e-02
  -1.0844557e-02
   5.5645425e-02
   9.8382169e-02
   1.1556609e-01
   9.6218852e-02
   6.8660095e-02
   3.2812506e-02
  -2.7534652e-02
  -2.5634782e-02
  -3.3188081e-03
   2.3706036e-02
   7.8427103e-02
   1.3923444e-01
   1.5223465e-01
   1.3473973e-01
   1.0709039e-01
   6.3728628e-02
   2.4874070e-02
   2.2665016e-03
   3.8390163e-02
   5.0965048e-02
   1.1934287e-01
   1.9856426e-01
   2.0680929e-01
   1.8250575e-01
   1.6268896e-01
   1.2590505e-01
   6.6677995e-02
   6.1814335e-02
   8.6906993e-02
   8.7370730e-02
   1.4757745e-01
   2.1029241e-01
   2.1350752e-01
   1.9126335e-01
   1.7210503e-01
   1.2521763e-01
   7.1439273e-02
   5.9678014e-02
   7.1110937e-02
   7.9010634e-02
   1.4256865e-01
   2.0105121e-01
   2.0782249e-01
   1.8587544e-01
   1.5884066e-01
   9.8729882e-02
   3.9508546e-02
   3.8095998e-02
   5.6678674e-02
   5.3708338e-02
   1.0028508e-01
   1.5955256e-01
   1.6346732e-01
   1.1655430e-01
   1.1383127e-01
   5.1844126e-02
  -1.1535445e-02
  -2.9746327e-02
  -2.7439162e-02
  -1.3082636e-02
   4.4938226e-02
   7.6977250e-02
   9.1145348e-02
   6.0321276e-02
   2.6468720e-02
  -3.1186431e-02
  -9.3098889e-02
  -1.0731250e-01
  -9.2153508e-02
  -8.2911280e-02
  -3.6145944e-02
   2.4080443e-02
   3.4845115e-02
   1.6371559e-02
   2.0798307e-03
  -6.1996327e-02
  -1.0436681e-01
  -9.8466827e-02
  -8.3051870e-02
  -6.6428096e-02
  -2.0838606e-02
   4.2033098e-02
   4.3698514e-02
   2.7502496e-04
  -1.2344235e-02
  -6.7365426e-02
  -1.1146807e-01
  -1.1439504e-01
  -9.7364585e-02
  -7.3205307e-02
  -1.4673378e-02
   2.3829573e-02
   4.1416309e-02
   1.1544977e-02
  -1.5994445e-02
  -7.0945494e-02
  -1.0509122e-01
  -1.0871654e-01
  -9.0006955e-02
  -7.1809310e-02
  -8.8312118e-03
   3.3339938e-02
   4.8310825e-02
   1.7203257e-02
  -1.1736412e-02
  -5.2588610e-02
  -1.0793664e-01
  -1.0945346e-01
  -9.1551574e-02
  -8.4876579e-02
  -3.1128766e-02
   3.0990872e-02
   4.1244733e-02
   2.4595951e-02
  -1.7317748e-02
  -6.7299385e-02
  -1.1560079e-01
  -1.1846486e-01
  -7.9681321e-02
  -7.7841855e-02
  -2.2946443e-02
   3.1158960e-02
   4.6373528e-02
   2.8184984e-02
  -1.0840045e-03
  -5.7895691e-02
  -1.1479269e-01
  -1.2259129e-01
  -9.6825201e-02
  -9.3070732e-02
  -3.3159699e-02
   1.6573420e-02
   4.2835971e-02
   1.6839827e-02
  -5.7656196e-03
  -5.7348920e-02
  -1.2240119e-01
  -1.2919083e-01
  -9.1735121e-02
  -6.6611600e-02
  -2.3531310e-02
   3.2398439e-02
   5.0155826e-02
   1.9575687e-02
  -1.2203236e-02
  -6.0575888e-02
  -1.1906951e-01
  -1.4096403e-01
  -1.2286172e-01
  -1.1604307e-01
  -4.8575205e-02
   3.5291056e-03
   3.0917500e-02
   8.6048675e-03
  -1.7520654e-02
  -6.7853007e-02
  -1.2370795e-01
  -1.1330331e-01
  -1.0290833e-01
  -8.6173266e-02
  -3.0859566e-02
   2.7117995e-02
   2.8506126e-02
   7.3136112e-04
  -3.3965022e-02
  -7.2191837e-02
  -1.3280284e-01
  -1.2866860e-01
  -1.1425874e-01
  -9.5525114e-02
  -3.2137470e-02
   1.6126219e-02
   2.3688851e-02
   1.4030801e-02
  -1.4502645e-02
  -5.9848662e-02
  -1.1290680e-01
  -1.2802305e-01
  -1.1337179e-01
  -1.0515141e-01
  -2.2731390e-02
   3.7751592e-02
   4.0414398e-02
   1.2031774e-02
  -2.6521426e-02
  -8.2341596e-02
  -1.4181233e-01
  -1.4642725e-01
  -1.2579953e-01
  -1.0717189e-01
  -5.8031571e-02
  -3.7292511e-03
   5.1734071e-03
   5.7194805e-03
  -3.3534498e-02
  -1.0046314e-01
  -1.4244569e-01
  -1.4082203e-01
  -1.2604433e-01
  -1.1469995e-01
  -3.8699151e-02
   1.5235606e-02
   2.2069594e-02
  -7.1314492e-04
  -3.2469203e-02
  -8.1678861e-02
  -1.2497726e-01
  -1.4635189e-01
  -1.1767205e-01
  -1.0719049e-01
  -5.5469912e-02
   1.3642786e-03
   1.4323344e-02
  -1.2347586e-02
  -4.0954329e-02
  -6.9571931e-02
  -1.1576711e-01
  -1.2238685e-01
  -9.5325572e-02
  -4.5330610e-02
   1.5802276e-02
   5.6104233e-02
   7.1548924e-02
   5.3473383e-02
   1.4582001e-02
  -3.6379808e-02
  -8.9742988e-02
  -9.2921228e-02
  -6.5872259e-02
  -4.8249123e-02
  -9.9335815e-04
   6.3369470e-02
   5.9670053e-02
   4.9621254e-02
   4.6239955e-02
   7.4160115e-03
  -4.7871567e-02
  -3.3957554e-02
  -1.6884383e-02
   6.5013001e-03
   5.7379244e-02
   1.0621883e-01
   1.1709041e-01
   9.0255922e-02
   6.1326985e-02
   3.2154017e-03
  -4.8468265e-02
  -6.7515367e-02
  -7.1734920e-02
  -5.6814080e-02
   8.7779171e-03
   5.9119691e-02
   6.6057152e-02
   5.3670717e-02
   2.7939773e-02
  -4.7972149e-02
  -9.9733611e-02
  -1.3234925e-01
  -1.0157369e-01
  -8.2063866e-02
  -2.8100986e-02
   1.4895128e-02
   3.0573819e-02
   1.0030566e-02
  -2.0222381e-02
  -7.6300923e-02
  -1.3710592e-01
  -1.3092860e-01
  -1.1648832e-01
  -1.0733573e-01
  -5.6753108e-02
   8.6068854e-03
   9.6657034e-03
  -1.6627683e-02
  -2.7372820e-02
  -9.1282493e-02
  -1.3226894e-01
  -1.4036434e-01
  -1.2634054e-01
  -1.0350532e-01
  -5.4046875e-02
  -2.7117188e-03
   6.2377746e-03
  -1.3249753e-02
  -4.3890770e-02
  -8.9970139e-02
  -1.5157678e-01
  -1.6876150e-01
  -1.5261020e-01
  -1.3078077e-01
  -7.4958395e-02
  -3.0061967e-02
  -7.0146972e-03
  -2.0141641e-03
   6.3464589e-03
   4.2179646e-03
  -2.5625024e-03
   5.4671092e-02
   1.3672360e-01
   2.4812187e-01
   4.1297630e-01
   5.4344817e-01
   6.6038267e-01
   6.8887705e-01
   6.2860440e-01
   5.3053166e-01
   4.5029258e-01
   3.2179002e-01
   2.1585348e-01
   1.1997677e-01
   6.3189074e-02
   6.5880532e-02
   4.4650642e-02
  -3.2384854e-02
  -1.1426740e-01
  -2.0541758e-01
  -2.7990633e-01
  -2.9486458e-01
  -3.0304369e-01
  -2.7608416e-01
  -2.1364045e-01
  -1.3516085e-01
  -1.2263890e-01
  -1.3553967e-01
  -1.3271018e-01
  -1.8006623e-01
  -2.0761279e-01
  -2.1271025e-01
  -1.9022621e-01
  -1.4227129e-01
  -8.0759017e-02
  -2.1283352e-02
   1.1912001e-02
  -1.4396681e-02
  -2.4604656e-02
  -8.1286440e-02
  -1.5160259e-01
  -1.3781732e-01
  -1.3068913e-01
  -1.0573922e-01
  -5.2447903e-02
  -4.7966583e-03
   5.9521319e-03
  -8.5470126e-04
  -1.7218127e-02
  -9.4759421e-02
  -1.2419762e-01
  -1.1470209e-01
  -1.1633743e-01
  -9.1329811e-02
  -4.2362435e-02
   1.3747433e-02
   2.8268651e-02
   1.4228746e-02
  -1.2232772e-02
  -7.2228286e-02
  -1.0776140e-01
  -1.0019698e-01
  -9.5874845e-02
  -8.0275336e-02
  -2.6370397e-02
   4.9644438e-02
   6.3761633e-02
   4.1459783e-02
   3.7353701e-03
  -5.3157413e-02
  -7.9667426e-02
  -7.6441229e-02
  -7.7955299e-02
  -6.0763935e-02
   1.9497414e-02
   8.7794481e-02
   8.4813068e-02
   5.2112650e-02
   2.3277931e-02
  -2.4478327e-02
  -7.1217767e-02
  -8.3665268e-02
  -7.2078496e-02
  -4.0615049e-02
   2.5744547e-02
   7.5444413e-02
   1.0212068e-01
   6.6665729e-02
   5.5755201e-02
  -9.2499136e-03
  -6.7521073e-02
  -9.1071862e-02
  -5.9613789e-02
  -2.5920424e-02
   5.0743915e-02
   9.3841160e-02
   8.7139397e-02
   6.5444663e-02
   2.2790915e-02
  -2.1138751e-02
  -6.4234628e-02
  -6.4363223e-02
  -3.3818683e-02
  -1.3394558e-02
   5.1845324e-02
   9.2122824e-02
   1.1130240e-01
   8.2831614e-02
   7.0179742e-02
   4.6735882e-02
   1.0324985e-03
  -1.5413067e-02
   8.9603338e-03
   3.4059828e-02
   1.0598196e-01
   1.5985880e-01
   1.7556245e-01
   1.3502424e-01
   1.0146844e-01
   7.9464749e-02
   3.2980450e-02
   1.2182327e-02
   4.2522900e-02
   8.2226757e-02
   1.3841952e-01
   1.8546517e-01
   1.9951996e-01
   1.6470620e-01
   1.4544078e-01
   9.3723204e-02
   2.9566354e-02
   4.5534489e-02
   5.7553160e-02
   8.3258776e-02
   1.2216328e-01
   1.7316831e-01
   1.8332403e-01
   1.8124205e-01
   1.6200730e-01
   9.4433291e-02
   4.5290311e-02
   2.0801493e-02
   2.9369528e-02
   3.8028565e-02
   8.0544340e-02
   1.3816427e-01
   1.4491848e-01
   1.2092941e-01
   8.2095832e-02
   4.0299534e-02
  -3.7901412e-02
  -4.2555676e-02
  -4.6351605e-02
  -2.4039174e-02
   3.2327803e-02
   8.0026721e-02
   6.4541404e-02
   2.9990570e-02
   4.3124908e-04
  -5.0726640e-02
  -7.4211673e-02
  -1.0604248e-01
  -9.6640507e-02
  -8.3274278e-02
  -3.1510892e-02
   2.2225780e-02
   3.1501561e-02
   3.9677702e-03
  -4.4560642e-02
  -7.9921367e-02
  -1.4039448e-01
  -1.4622580e-01
  -1.1179024e-01
  -1.0778391e-01
  -4.0341683e-02
  -7.5041681e-03
  -1.3733524e-02
  -2.9988759e-02
  -5.9609847e-02
  -1.1760290e-01
  -1.5893837e-01
  -1.3399122e-01
  -1.0630973e-01
  -8.9050451e-02
  -1.6800787e-02
   1.6241181e-02
   1.8603843e-02
   7.3173912e-03
  -2.4952552e-02
  -8.2045653e-02
  -1.2801248e-01
  -1.4288170e-01
  -1.3085700e-01
  -7.7732931e-02
  -2.0588874e-02
   2.4538215e-02
   4.4413600e-03
  -2.0214905e-02
  -2.7661407e-02
  -8.1782986e-02
  -1.3825722e-01
  -1.4953762e-01
  -1.2998272e-01
  -8.3405538e-02
  -2.8351711e-02
   2.7040275e-02
   4.2286942e-02
   1.0646542e-02
  -3.4070078e-02
  -8.4933772e-02
  -1.1102544e-01
  -1.2322947e-01
  -1.0968307e-01
  -8.8909405e-02
  -4.1463951e-02
   4.2430530e-02
   2.2642631e-02
  -1.5119614e-02
  -2.8655221e-02
  -9.6456120e-02
  -1.1365768e-01
  -1.1811247e-01
  -1.1757848e-01
  -8.5635942e-02
  -3.7697902e-02
   1.1741227e-02
   4.7039378e-02
   8.7245458e-06
  -2.4544298e-02
  -8.3032976e-02
  -1.3661282e-01
  -1.3523305e-01
  -1.1996464e-01
  -7.0789772e-02
   7.8719936e-04
   1.5210326e-02
   9.9344176e-03
   3.6613350e-03
  -1.1746764e-02
  -6.8029986e-02
  -1.1228781e-01
  -1.0980236e-01
  -8.4274636e-02
  -7.7611976e-02
  -3.4035021e-03
   3.5608785e-02
   2.7702451e-02
   1.9357588e-02
  -2.6206727e-03
  -7.1322989e-02
  -1.1244073e-01
  -1.1782307e-01
  -1.0745833e-01
  -9.9217142e-02
  -2.3587415e-02
   5.5142897e-02
   3.7888616e-02
   1.6186809e-02
  -2.2434818e-02
  -7.8102846e-02
  -1.2456401e-01
  -1.3679920e-01
  -1.2902839e-01
  -1.3034040e-01
  -4.0579770e-02
  -1.0785348e-02
  -2.4994005e-02
  -4.9061564e-02
  -6.1705663e-02
  -1.1343800e-01
  -1.4536784e-01
  -1.5719707e-01
  -1.6131152e-01
  -1.1001881e-01
  -4.2010276e-02
  -2.4827454e-03
   9.2458461e-03
   9.7081064e-03
  -1.9086259e-02
  -8.2856112e-02
  -1.3204025e-01
  -1.4222710e-01
  -1.0252905e-01
  -7.9291371e-02
  -2.8294964e-02
   1.4723742e-02
   3.7501778e-02
   1.4684641e-02
  -1.9439637e-02
  -6.9969365e-02
  -1.1355037e-01
  -1.0037627e-01
  -5.9893848e-02
  -9.5415839e-03
   5.2294239e-02
   9.5584675e-02
   1.0741924e-01
   8.8149926e-02
   5.2345485e-02
  -2.2093874e-03
  -5.3165249e-02
  -6.9473917e-02
  -5.7164192e-02
  -2.4811711e-02
   1.2666538e-02
   2.0387660e-02
   6.3549818e-02
   2.8588525e-02
  -3.5443317e-02
  -7.6147875e-02
  -1.0965063e-01
  -1.2410107e-01
  -1.2447277e-01
  -1.0183178e-01
  -5.7640650e-02
   8.1313729e-03
  -2.0418678e-02
  -4.3894215e-02
  -6.1113182e-02
  -1.4658895e-01
  -1.7422185e-01
  -1.7776140e-01
  -1.6563443e-01
  -1.3231195e-01
  -6.7696993e-02
  -3.3259484e-02
  -1.7685331e-02
  -2.5767153e-02
  -7.6590243e-02
  -1.2581264e-01
  -1.7042539e-01
  -1.7597370e-01
  -1.6772404e-01
  -1.6199817e-01
  -6.6504412e-02
  -5.5713212e-02
  -3.7384485e-02
  -4.9018341e-02
  -8.6391009e-02
  -1.1492071e-01
  -1.8616545e-01
  -1.9293656e-01
  -1.6250493e-01
  -1.5356825e-01
  -1.1490757e-01
  -7.2028474e-02
  -9.4305738e-02
  -1.0028538e-01
  -9.9613754e-02
  -1.4047471e-01
  -1.0317940e-01
  -4.4116512e-02
   9.3517289e-03
   9.3966242e-02
   2.0136836e-01
   3.2275645e-01
   4.2309509e-01
   4.4648146e-01
   4.8252099e-01
   4.7858711e-01
   4.2810591e-01
   3.9040657e-01
   3.8758154e-01
   3.2279708e-01
   2.7526118e-01
   2.1538553e-01
   1.1635994e-01
   2.0682097e-02
  -3.0144392e-02
  -1.2515434e-01
  -2.0990511e-01
  -2.3167532e-01
  -2.3023265e-01
  -2.1286920e-01
  -2.0152422e-01
  -1.5383148e-01
  -1.4489446e-01
  -1.3879659e-01
  -1.9237434e-01
  -2.4797358e-01
  -2.9535003e-01
  -2.8158155e-01
  -2.4471655e-01
  -2.2028165e-01
  -1.1079011e-01
  -4.4146041e-02
  -2.2266517e-02
  -3.0820971e-02
  -4.7675223e-02
  -9.3753800e-02
  -1.6355978e-01
  -1.5242308e-01
  -1.3155736e-01
  -1.1010052e-01
  -4.1998554e-02
  -5.5943382e-03
   1.4100935e-03
  -1.5827306e-02
  -4.2104583e-02
  -1.0090354e-01
  -1.4642696e-01
  -1.3712504e-01
  -1.1198934e-01
  -8.2456148e-02
  -3.9502730e-02
   6.4653276e-03
   1.3816008e-02
  -1.5790419e-02
  -4.4728104e-02
  -1.0369663e-01
  -1.4972901e-01
  -1.3052093e-01
  -1.2272422e-01
  -9.7909226e-02
  -2.3339261e-02
   2.3614549e-02
   1.2110327e-02
   1.3088591e-02
   6.0234640e-03
  -6.1795718e-02
  -1.2446566e-01
  -1.1559014e-01
  -1.2324630e-01
  -9.5499323e-02
  -1.0412476e-02
   2.0886353e-02
   2.3043538e-02
   2.6714070e-02
  -2.0566253e-02
  -6.4069266e-02
  -1.1117071e-01
  -8.6343160e-02
  -9.4556790e-02
  -7.0253305e-02
   2.2451667e-03
   4.4326451e-02
   3.7391978e-02
   3.5549663e-02
  -9.0757569e-03
  -5.0305116e-02
  -1.0217048e-01
  -1.0841763e-01
  -8.9480650e-02
  -7.3048833e-02
   2.1980886e-02
   6.8796599e-02
   7.4354250e-02
   4.7469769e-02
   8.5994539e-03
  -2.8629310e-02
  -8.4330389e-02
  -7.6230070e-02
  -4.9413183e-02
  -2.2069740e-02
   4.2402369e-02
   9.6132725e-02
   7.5563653e-02
   8.1688365e-02
   6.1092291e-02
  -1.2711008e-02
  -4.4488199e-02
  -6.0078750e-02
  -1.3383092e-02
   3.5498537e-02
   1.0494269e-01
   1.2674388e-01
   1.2130431e-01
   8.2395140e-02
   6.0703542e-02
   4.4966650e-03
  -3.2294102e-02
  -2.6103368e-02
  -1.9836019e-02
   1.0961822e-02
   8.4993711e-02
   1.2812951e-01
   1.3115713e-01
   1.2243395e-01
   6.6050409e-02
   3.8588053e-02
  -3.7955605e-02
  -4.5472130e-02
  -2.4083823e-03
   3.3914192e-02
   6.5214719e-02
   1.0323038e-01
   1.1444539e-01
   9.3351730e-02
   7.3549837e-02
   1.2634699e-02
  -3.7153375e-02
  -4.1543722e-02
  -9.0485370e-03
   1.4460409e-02
   5.5550209e-02
   7.7934433e-02
   7.6588494e-02
   7.4460059e-02
   1.4870707e-02
  -3.2416639e-02
  -7.9740800e-02
  -5.6259394e-02
  -8.1289899e-02
  -4.4999955e-02
   7.7387702e-03
   2.2413611e-02
   4.4500924e-02
   3.4830862e-02
   1.6186621e-02
  -7.8040027e-02
  -1.2861858e-01
  -1.2745529e-01
  -1.0077049e-01
  -1.0185631e-01
  -4.5194208e-02
   1.6280427e-02
  -7.1566356e-04
  -8.0949022e-04
  -4.5542246e-02
  -8.7271180e-02
  -1.5138441e-01
  -1.3553823e-01
  -1.4700573e-01
  -1.1419907e-01
  -5.8086855e-02
  -2.5909909e-02
   1.1182547e-02
  -1.2574212e-03
  -5.3760904e-02
  -9.7302127e-02
  -1.4056571e-01
  -1.3643866e-01
  -1.2957018e-01
  -9.9124146e-02
  -5.4821766e-02
  -1.8379323e-02
   2.8856247e-02
  -2.6695050e-02
  -5.7212334e-02
  -1.1652103e-01
  -1.4412218e-01
  -1.2298783e-01
  -1.3655188e-01
  -8.9896038e-02
  -2.5532674e-02
   4.0098176e-02
   3.2766955e-02
  -7.4440447e-04
  -3.3447702e-02
  -9.9118462e-02
  -1.4540034e-01
  -1.6878387e-01
  -1.5019806e-01
  -7.5534147e-02
  -1.5710915e-02
  -2.5344267e-02
  -1.1706791e-02
   2.6322376e-02
  -1.1032399e-02
  -9.3511739e-02
  -1.1314867e-01
  -1.2420853e-01
  -1.1564268e-01
  -1.0149067e-01
  -1.7179769e-02
   2.7979686e-02
   5.3670252e-03
  -1.5335530e-03
  -2.2818067e-02
  -8.8261161e-02
  -1.3806140e-01
  -1.2582400e-01
  -1.3508444e-01
  -8.4804168e-02
  -2.3393636e-02
   1.9655863e-02
   3.0158141e-02
  -9.0746613e-03
  -1.5045431e-02
  -1.0711196e-01
  -1.3601379e-01
  -1.4689881e-01
  -1.3149194e-01
  -7.2693327e-02
  -5.8978424e-02
  -7.9057168e-03
   2.2621585e-02
  -1.5689671e-02
  -5.3364070e-02
  -1.2922803e-01
  -1.3785600e-01
  -1.3837751e-01
  -1.2716847e-01
  -8.8603843e-02
  -2.0978807e-02
   1.3328702e-02
   1.1482469e-02
  -1.5702922e-02
  -8.1433572e-03
  -1.0657205e-01
  -1.6078815e-01
  -1.4337108e-01
  -1.4440269e-01
  -1.0517132e-01
  -4.4083636e-02
   3.2572544e-02
   2.8401677e-02
  -3.0333764e-03
  -5.6689982e-02
  -1.0227539e-01
  -1.3406643e-01
  -1.2223149e-01
  -1.0945117e-01
  -5.1211378e-02
   4.4095724e-02
   7.6032725e-02
   7.6975979e-02
   6.3923305e-02
   3.3640939e-02
  -7.9749033e-02
  -1.0787256e-01
  -8.4625113e-02
  -6.4728839e-02
  -3.4001422e-02
   3.5281678e-02
   8.7473201e-02
   5.5111210e-02
   3.3660209e-02
  -1.4987669e-02
